ECG:5
# EndOfHeader
0	0	0	0	0	507
1	0	0	0	0	519
2	0	0	0	0	506
3	0	0	0	0	513
4	0	0	0	0	502
5	0	0	0	0	500
6	0	0	0	0	514
7	0	0	0	0	501
8	0	0	0	0	487
9	0	0	0	0	477
10	0	0	0	0	553
11	0	0	0	0	832
12	0	0	0	0	859
13	0	0	0	0	531
14	0	0	0	0	435
15	0	0	0	0	421
0	0	0	0	0	433
1	0	0	0	0	428
2	0	0	0	0	447
3	0	0	0	0	451
4	0	0	0	0	454
5	0	0	0	0	471
6	0	0	0	0	466
7	0	0	0	0	483
8	0	0	0	0	480
9	0	0	0	0	476
10	0	0	0	0	490
11	0	0	0	0	480
12	0	0	0	0	492
13	0	0	0	0	490
14	0	0	0	0	488
15	0	0	0	0	502
0	0	0	0	0	492
1	0	0	0	0	504
2	0	0	0	0	498
3	0	0	0	0	498
4	0	0	0	0	512
5	0	0	0	0	505
6	0	0	0	0	516
7	0	0	0	0	512
8	0	0	0	0	510
9	0	0	0	0	519
10	0	0	0	0	506
11	0	0	0	0	514
12	0	0	0	0	509
13	0	0	0	0	504
14	0	0	0	0	515
15	0	0	0	0	506
0	0	0	0	0	515
1	0	0	0	0	511
2	0	0	0	0	508
3	0	0	0	0	520
4	0	0	0	0	507
5	0	0	0	0	516
6	0	0	0	0	511
7	0	0	0	0	506
8	0	0	0	0	516
9	0	0	0	0	507
10	0	0	0	0	515
11	0	0	0	0	509
12	0	0	0	0	508
13	0	0	0	0	516
14	0	0	0	0	504
15	0	0	0	0	515
0	0	0	0	0	510
1	0	0	0	0	506
2	0	0	0	0	520
3	0	0	0	0	505
4	0	0	0	0	514
5	0	0	0	0	511
6	0	0	0	0	504
7	0	0	0	0	517
8	0	0	0	0	505
9	0	0	0	0	513
10	0	0	0	0	509
11	0	0	0	0	505
12	0	0	0	0	515
13	0	0	0	0	506
14	0	0	0	0	512
15	0	0	0	0	509
0	0	0	0	0	506
1	0	0	0	0	513
2	0	0	0	0	505
3	0	0	0	0	511
4	0	0	0	0	508
5	0	0	0	0	504
6	0	0	0	0	515
7	0	0	0	0	502
8	0	0	0	0	510
9	0	0	0	0	508
10	0	0	0	0	510
11	0	0	0	0	522
12	0	0	0	0	508
13	0	0	0	0	517
14	0	0	0	0	511
15	0	0	0	0	499
0	0	0	0	0	510
1	0	0	0	0	499
2	0	0	0	0	505
3	0	0	0	0	501
4	0	0	0	0	469
5	0	0	0	0	481
6	0	0	0	0	558
7	0	0	0	0	832
8	0	0	0	0	802
9	0	0	0	0	498
10	0	0	0	0	436
11	0	0	0	0	425
12	0	0	0	0	435
13	0	0	0	0	437
14	0	0	0	0	439
15	0	0	0	0	460
0	0	0	0	0	454
1	0	0	0	0	466
2	0	0	0	0	467
3	0	0	0	0	465
4	0	0	0	0	479
5	0	0	0	0	477
6	0	0	0	0	494
7	0	0	0	0	497
8	0	0	0	0	498
9	0	0	0	0	511
10	0	0	0	0	500
11	0	0	0	0	512
12	0	0	0	0	510
13	0	0	0	0	511
14	0	0	0	0	525
15	0	0	0	0	512
0	0	0	0	0	523
1	0	0	0	0	520
2	0	0	0	0	515
3	0	0	0	0	528
4	0	0	0	0	517
5	0	0	0	0	524
6	0	0	0	0	516
7	0	0	0	0	509
8	0	0	0	0	521
9	0	0	0	0	505
10	0	0	0	0	513
11	0	0	0	0	505
12	0	0	0	0	500
13	0	0	0	0	515
14	0	0	0	0	499
15	0	0	0	0	508
0	0	0	0	0	506
1	0	0	0	0	499
2	0	0	0	0	513
3	0	0	0	0	499
4	0	0	0	0	509
5	0	0	0	0	505
6	0	0	0	0	499
7	0	0	0	0	514
8	0	0	0	0	500
9	0	0	0	0	509
10	0	0	0	0	503
11	0	0	0	0	499
12	0	0	0	0	513
13	0	0	0	0	500
14	0	0	0	0	508
15	0	0	0	0	503
0	0	0	0	0	497
1	0	0	0	0	514
2	0	0	0	0	499
3	0	0	0	0	511
4	0	0	0	0	507
5	0	0	0	0	502
6	0	0	0	0	517
7	0	0	0	0	505
8	0	0	0	0	513
9	0	0	0	0	509
10	0	0	0	0	508
11	0	0	0	0	527
12	0	0	0	0	515
13	0	0	0	0	526
14	0	0	0	0	517
15	0	0	0	0	509
0	0	0	0	0	520
1	0	0	0	0	503
2	0	0	0	0	511
3	0	0	0	0	509
4	0	0	0	0	505
5	0	0	0	0	519
6	0	0	0	0	477
7	0	0	0	0	486
8	0	0	0	0	566
9	0	0	0	0	818
10	0	0	0	0	834
11	0	0	0	0	508
12	0	0	0	0	437
13	0	0	0	0	431
14	0	0	0	0	432
15	0	0	0	0	453
0	0	0	0	0	447
1	0	0	0	0	465
2	0	0	0	0	469
3	0	0	0	0	468
4	0	0	0	0	487
5	0	0	0	0	478
6	0	0	0	0	491
7	0	0	0	0	493
8	0	0	0	0	488
9	0	0	0	0	507
10	0	0	0	0	492
11	0	0	0	0	502
12	0	0	0	0	503
13	0	0	0	0	499
14	0	0	0	0	514
15	0	0	0	0	501
0	0	0	0	0	512
1	0	0	0	0	512
2	0	0	0	0	509
3	0	0	0	0	526
4	0	0	0	0	517
5	0	0	0	0	526
6	0	0	0	0	523
7	0	0	0	0	515
8	0	0	0	0	526
9	0	0	0	0	510
10	0	0	0	0	518
11	0	0	0	0	516
12	0	0	0	0	515
13	0	0	0	0	529
14	0	0	0	0	518
15	0	0	0	0	525
0	0	0	0	0	524
1	0	0	0	0	517
2	0	0	0	0	534
3	0	0	0	0	519
4	0	0	0	0	527
5	0	0	0	0	524
6	0	0	0	0	518
7	0	0	0	0	531
8	0	0	0	0	514
9	0	0	0	0	522
10	0	0	0	0	519
11	0	0	0	0	513
12	0	0	0	0	528
13	0	0	0	0	513
14	0	0	0	0	521
15	0	0	0	0	518
0	0	0	0	0	511
1	0	0	0	0	519
2	0	0	0	0	504
3	0	0	0	0	508
4	0	0	0	0	503
5	0	0	0	0	498
6	0	0	0	0	510
7	0	0	0	0	500
8	0	0	0	0	507
9	0	0	0	0	505
10	0	0	0	0	501
11	0	0	0	0	514
12	0	0	0	0	501
13	0	0	0	0	505
14	0	0	0	0	501
15	0	0	0	0	495
0	0	0	0	0	503
1	0	0	0	0	486
2	0	0	0	0	487
3	0	0	0	0	490
4	0	0	0	0	491
5	0	0	0	0	503
6	0	0	0	0	490
7	0	0	0	0	494
8	0	0	0	0	493
9	0	0	0	0	489
10	0	0	0	0	500
11	0	0	0	0	492
12	0	0	0	0	499
13	0	0	0	0	497
14	0	0	0	0	462
15	0	0	0	0	484
0	0	0	0	0	609
1	0	0	0	0	915
2	0	0	0	0	754
3	0	0	0	0	466
4	0	0	0	0	425
5	0	0	0	0	419
6	0	0	0	0	426
7	0	0	0	0	435
8	0	0	0	0	438
9	0	0	0	0	459
10	0	0	0	0	458
11	0	0	0	0	467
12	0	0	0	0	475
13	0	0	0	0	475
14	0	0	0	0	490
15	0	0	0	0	485
0	0	0	0	0	493
1	0	0	0	0	497
2	0	0	0	0	492
3	0	0	0	0	502
4	0	0	0	0	496
5	0	0	0	0	500
6	0	0	0	0	502
7	0	0	0	0	498
8	0	0	0	0	507
9	0	0	0	0	505
10	0	0	0	0	509
11	0	0	0	0	514
12	0	0	0	0	511
13	0	0	0	0	524
14	0	0	0	0	519
15	0	0	0	0	518
0	0	0	0	0	518
1	0	0	0	0	512
2	0	0	0	0	520
3	0	0	0	0	513
4	0	0	0	0	515
5	0	0	0	0	517
6	0	0	0	0	514
7	0	0	0	0	524
8	0	0	0	0	517
9	0	0	0	0	519
10	0	0	0	0	519
11	0	0	0	0	515
12	0	0	0	0	521
13	0	0	0	0	515
14	0	0	0	0	516
15	0	0	0	0	518
0	0	0	0	0	514
1	0	0	0	0	523
2	0	0	0	0	513
3	0	0	0	0	514
4	0	0	0	0	515
5	0	0	0	0	510
6	0	0	0	0	519
7	0	0	0	0	512
8	0	0	0	0	512
9	0	0	0	0	513
10	0	0	0	0	508
11	0	0	0	0	517
12	0	0	0	0	509
13	0	0	0	0	510
14	0	0	0	0	512
15	0	0	0	0	507
0	0	0	0	0	517
1	0	0	0	0	511
2	0	0	0	0	512
3	0	0	0	0	514
4	0	0	0	0	508
5	0	0	0	0	518
6	0	0	0	0	511
7	0	0	0	0	510
8	0	0	0	0	512
9	0	0	0	0	506
10	0	0	0	0	515
11	0	0	0	0	510
12	0	0	0	0	512
13	0	0	0	0	514
14	0	0	0	0	511
15	0	0	0	0	523
0	0	0	0	0	519
1	0	0	0	0	512
2	0	0	0	0	513
3	0	0	0	0	505
4	0	0	0	0	511
5	0	0	0	0	502
6	0	0	0	0	504
7	0	0	0	0	507
8	0	0	0	0	501
9	0	0	0	0	479
10	0	0	0	0	474
11	0	0	0	0	569
12	0	0	0	0	856
13	0	0	0	0	827
14	0	0	0	0	508
15	0	0	0	0	422
0	0	0	0	0	419
1	0	0	0	0	425
2	0	0	0	0	427
3	0	0	0	0	443
4	0	0	0	0	444
5	0	0	0	0	454
6	0	0	0	0	462
7	0	0	0	0	463
8	0	0	0	0	477
9	0	0	0	0	472
10	0	0	0	0	476
11	0	0	0	0	482
12	0	0	0	0	482
13	0	0	0	0	492
14	0	0	0	0	484
15	0	0	0	0	488
0	0	0	0	0	493
1	0	0	0	0	491
2	0	0	0	0	503
3	0	0	0	0	499
4	0	0	0	0	501
5	0	0	0	0	508
6	0	0	0	0	505
7	0	0	0	0	518
8	0	0	0	0	514
9	0	0	0	0	513
10	0	0	0	0	518
11	0	0	0	0	511
12	0	0	0	0	518
13	0	0	0	0	511
14	0	0	0	0	512
15	0	0	0	0	513
0	0	0	0	0	511
1	0	0	0	0	519
2	0	0	0	0	513
3	0	0	0	0	513
4	0	0	0	0	515
5	0	0	0	0	512
6	0	0	0	0	519
7	0	0	0	0	512
8	0	0	0	0	512
9	0	0	0	0	515
10	0	0	0	0	509
11	0	0	0	0	517
12	0	0	0	0	507
13	0	0	0	0	506
14	0	0	0	0	507
15	0	0	0	0	502
0	0	0	0	0	509
1	0	0	0	0	503
2	0	0	0	0	500
3	0	0	0	0	504
4	0	0	0	0	503
5	0	0	0	0	512
6	0	0	0	0	504
7	0	0	0	0	503
8	0	0	0	0	504
9	0	0	0	0	500
10	0	0	0	0	505
11	0	0	0	0	500
12	0	0	0	0	505
13	0	0	0	0	510
14	0	0	0	0	505
15	0	0	0	0	513
0	0	0	0	0	503
1	0	0	0	0	504
2	0	0	0	0	511
3	0	0	0	0	510
4	0	0	0	0	525
5	0	0	0	0	512
6	0	0	0	0	506
7	0	0	0	0	511
8	0	0	0	0	505
9	0	0	0	0	517
10	0	0	0	0	510
11	0	0	0	0	507
12	0	0	0	0	511
13	0	0	0	0	483
14	0	0	0	0	481
15	0	0	0	0	526
0	0	0	0	0	723
1	0	0	0	0	889
2	0	0	0	0	545
3	0	0	0	0	428
4	0	0	0	0	406
5	0	0	0	0	411
6	0	0	0	0	420
7	0	0	0	0	426
8	0	0	0	0	445
9	0	0	0	0	446
10	0	0	0	0	452
11	0	0	0	0	460
12	0	0	0	0	457
13	0	0	0	0	478
14	0	0	0	0	475
15	0	0	0	0	477
0	0	0	0	0	487
1	0	0	0	0	485
2	0	0	0	0	498
3	0	0	0	0	491
4	0	0	0	0	494
5	0	0	0	0	497
6	0	0	0	0	493
7	0	0	0	0	509
8	0	0	0	0	503
9	0	0	0	0	505
10	0	0	0	0	508
11	0	0	0	0	506
12	0	0	0	0	521
13	0	0	0	0	514
14	0	0	0	0	510
15	0	0	0	0	513
0	0	0	0	0	505
1	0	0	0	0	512
2	0	0	0	0	504
3	0	0	0	0	507
4	0	0	0	0	513
5	0	0	0	0	506
6	0	0	0	0	514
7	0	0	0	0	505
8	0	0	0	0	504
9	0	0	0	0	507
10	0	0	0	0	499
11	0	0	0	0	508
12	0	0	0	0	499
13	0	0	0	0	500
14	0	0	0	0	506
15	0	0	0	0	499
0	0	0	0	0	511
1	0	0	0	0	502
2	0	0	0	0	502
3	0	0	0	0	506
4	0	0	0	0	502
5	0	0	0	0	513
6	0	0	0	0	505
7	0	0	0	0	504
8	0	0	0	0	510
9	0	0	0	0	506
10	0	0	0	0	521
11	0	0	0	0	514
12	0	0	0	0	519
13	0	0	0	0	528
14	0	0	0	0	514
15	0	0	0	0	523
0	0	0	0	0	512
1	0	0	0	0	508
2	0	0	0	0	511
3	0	0	0	0	505
4	0	0	0	0	518
5	0	0	0	0	508
6	0	0	0	0	494
7	0	0	0	0	484
8	0	0	0	0	523
9	0	0	0	0	694
10	0	0	0	0	936
11	0	0	0	0	598
12	0	0	0	0	451
13	0	0	0	0	424
14	0	0	0	0	441
15	0	0	0	0	433
0	0	0	0	0	440
1	0	0	0	0	449
2	0	0	0	0	449
3	0	0	0	0	470
4	0	0	0	0	465
5	0	0	0	0	470
6	0	0	0	0	483
7	0	0	0	0	482
8	0	0	0	0	499
9	0	0	0	0	495
10	0	0	0	0	496
11	0	0	0	0	503
12	0	0	0	0	502
13	0	0	0	0	520
14	0	0	0	0	512
15	0	0	0	0	513
0	0	0	0	0	520
1	0	0	0	0	513
2	0	0	0	0	531
3	0	0	0	0	524
4	0	0	0	0	523
5	0	0	0	0	526
6	0	0	0	0	517
7	0	0	0	0	528
8	0	0	0	0	516
9	0	0	0	0	511
10	0	0	0	0	515
11	0	0	0	0	508
12	0	0	0	0	520
13	0	0	0	0	513
14	0	0	0	0	512
15	0	0	0	0	521
0	0	0	0	0	514
1	0	0	0	0	531
2	0	0	0	0	519
3	0	0	0	0	519
4	0	0	0	0	528
5	0	0	0	0	518
6	0	0	0	0	529
7	0	0	0	0	521
8	0	0	0	0	518
9	0	0	0	0	523
10	0	0	0	0	516
11	0	0	0	0	528
12	0	0	0	0	517
13	0	0	0	0	516
14	0	0	0	0	520
15	0	0	0	0	512
0	0	0	0	0	527
1	0	0	0	0	522
2	0	0	0	0	526
3	0	0	0	0	524
4	0	0	0	0	515
5	0	0	0	0	519
6	0	0	0	0	508
7	0	0	0	0	502
8	0	0	0	0	506
9	0	0	0	0	499
10	0	0	0	0	512
11	0	0	0	0	496
12	0	0	0	0	471
13	0	0	0	0	515
14	0	0	0	0	660
15	0	0	0	0	957
0	0	0	0	0	632
1	0	0	0	0	445
2	0	0	0	0	422
3	0	0	0	0	423
4	0	0	0	0	443
5	0	0	0	0	441
6	0	0	0	0	449
7	0	0	0	0	464
8	0	0	0	0	459
9	0	0	0	0	479
10	0	0	0	0	473
11	0	0	0	0	476
12	0	0	0	0	489
13	0	0	0	0	486
14	0	0	0	0	501
15	0	0	0	0	493
0	0	0	0	0	493
1	0	0	0	0	504
2	0	0	0	0	498
3	0	0	0	0	513
4	0	0	0	0	507
5	0	0	0	0	507
6	0	0	0	0	514
7	0	0	0	0	513
8	0	0	0	0	523
9	0	0	0	0	516
10	0	0	0	0	514
11	0	0	0	0	516
12	0	0	0	0	507
13	0	0	0	0	518
14	0	0	0	0	500
15	0	0	0	0	495
0	0	0	0	0	504
1	0	0	0	0	496
2	0	0	0	0	510
3	0	0	0	0	504
4	0	0	0	0	503
5	0	0	0	0	512
6	0	0	0	0	504
7	0	0	0	0	518
8	0	0	0	0	513
9	0	0	0	0	508
10	0	0	0	0	515
11	0	0	0	0	507
12	0	0	0	0	521
13	0	0	0	0	512
14	0	0	0	0	506
15	0	0	0	0	513
0	0	0	0	0	504
1	0	0	0	0	516
2	0	0	0	0	504
3	0	0	0	0	502
4	0	0	0	0	512
5	0	0	0	0	505
6	0	0	0	0	527
7	0	0	0	0	519
8	0	0	0	0	510
9	0	0	0	0	512
10	0	0	0	0	499
11	0	0	0	0	511
12	0	0	0	0	500
13	0	0	0	0	500
14	0	0	0	0	506
15	0	0	0	0	500
0	0	0	0	0	499
1	0	0	0	0	480
2	0	0	0	0	542
3	0	0	0	0	750
4	0	0	0	0	925
5	0	0	0	0	566
6	0	0	0	0	432
7	0	0	0	0	422
8	0	0	0	0	437
9	0	0	0	0	437
10	0	0	0	0	460
11	0	0	0	0	457
12	0	0	0	0	463
13	0	0	0	0	479
14	0	0	0	0	474
15	0	0	0	0	494
0	0	0	0	0	487
1	0	0	0	0	488
2	0	0	0	0	499
3	0	0	0	0	493
4	0	0	0	0	511
5	0	0	0	0	502
6	0	0	0	0	502
7	0	0	0	0	509
8	0	0	0	0	504
9	0	0	0	0	518
10	0	0	0	0	509
11	0	0	0	0	508
12	0	0	0	0	517
13	0	0	0	0	512
14	0	0	0	0	527
15	0	0	0	0	514
0	0	0	0	0	510
1	0	0	0	0	516
2	0	0	0	0	506
3	0	0	0	0	517
4	0	0	0	0	505
5	0	0	0	0	504
6	0	0	0	0	512
7	0	0	0	0	504
8	0	0	0	0	520
9	0	0	0	0	510
10	0	0	0	0	509
11	0	0	0	0	517
12	0	0	0	0	509
13	0	0	0	0	524
14	0	0	0	0	515
15	0	0	0	0	511
0	0	0	0	0	519
1	0	0	0	0	511
2	0	0	0	0	522
3	0	0	0	0	511
4	0	0	0	0	510
5	0	0	0	0	518
6	0	0	0	0	509
7	0	0	0	0	524
8	0	0	0	0	513
9	0	0	0	0	511
10	0	0	0	0	516
11	0	0	0	0	510
12	0	0	0	0	525
13	0	0	0	0	512
14	0	0	0	0	512
15	0	0	0	0	519
0	0	0	0	0	517
1	0	0	0	0	537
2	0	0	0	0	519
3	0	0	0	0	513
4	0	0	0	0	519
5	0	0	0	0	506
6	0	0	0	0	516
7	0	0	0	0	509
8	0	0	0	0	507
9	0	0	0	0	514
10	0	0	0	0	502
11	0	0	0	0	488
12	0	0	0	0	495
13	0	0	0	0	636
14	0	0	0	0	945
15	0	0	0	0	740
0	0	0	0	0	467
1	0	0	0	0	419
2	0	0	0	0	421
3	0	0	0	0	436
4	0	0	0	0	434
5	0	0	0	0	456
6	0	0	0	0	455
7	0	0	0	0	459
8	0	0	0	0	473
9	0	0	0	0	472
10	0	0	0	0	487
11	0	0	0	0	484
12	0	0	0	0	483
13	0	0	0	0	495
14	0	0	0	0	488
15	0	0	0	0	504
0	0	0	0	0	496
1	0	0	0	0	497
2	0	0	0	0	507
3	0	0	0	0	499
4	0	0	0	0	514
5	0	0	0	0	507
6	0	0	0	0	505
7	0	0	0	0	516
8	0	0	0	0	511
9	0	0	0	0	524
10	0	0	0	0	513
11	0	0	0	0	510
12	0	0	0	0	515
13	0	0	0	0	504
14	0	0	0	0	515
15	0	0	0	0	504
0	0	0	0	0	499
1	0	0	0	0	506
2	0	0	0	0	499
3	0	0	0	0	514
4	0	0	0	0	506
5	0	0	0	0	504
6	0	0	0	0	512
7	0	0	0	0	506
8	0	0	0	0	522
9	0	0	0	0	513
10	0	0	0	0	511
11	0	0	0	0	519
12	0	0	0	0	513
13	0	0	0	0	526
14	0	0	0	0	515
15	0	0	0	0	513
0	0	0	0	0	521
1	0	0	0	0	515
2	0	0	0	0	527
3	0	0	0	0	519
4	0	0	0	0	516
5	0	0	0	0	522
6	0	0	0	0	516
7	0	0	0	0	527
8	0	0	0	0	519
9	0	0	0	0	515
10	0	0	0	0	520
11	0	0	0	0	514
12	0	0	0	0	526
13	0	0	0	0	515
14	0	0	0	0	512
15	0	0	0	0	519
0	0	0	0	0	508
1	0	0	0	0	520
2	0	0	0	0	512
3	0	0	0	0	510
4	0	0	0	0	516
5	0	0	0	0	508
6	0	0	0	0	520
7	0	0	0	0	514
8	0	0	0	0	509
9	0	0	0	0	516
10	0	0	0	0	509
11	0	0	0	0	520
12	0	0	0	0	509
13	0	0	0	0	507
14	0	0	0	0	513
15	0	0	0	0	508
0	0	0	0	0	520
1	0	0	0	0	509
2	0	0	0	0	508
3	0	0	0	0	518
4	0	0	0	0	515
5	0	0	0	0	531
6	0	0	0	0	516
7	0	0	0	0	511
8	0	0	0	0	515
9	0	0	0	0	507
10	0	0	0	0	516
11	0	0	0	0	506
12	0	0	0	0	504
13	0	0	0	0	510
14	0	0	0	0	476
15	0	0	0	0	484
0	0	0	0	0	566
1	0	0	0	0	849
2	0	0	0	0	905
3	0	0	0	0	504
4	0	0	0	0	428
5	0	0	0	0	414
6	0	0	0	0	414
7	0	0	0	0	428
8	0	0	0	0	431
9	0	0	0	0	452
10	0	0	0	0	449
11	0	0	0	0	452
12	0	0	0	0	467
13	0	0	0	0	465
14	0	0	0	0	480
15	0	0	0	0	475
0	0	0	0	0	476
1	0	0	0	0	486
2	0	0	0	0	481
3	0	0	0	0	496
4	0	0	0	0	487
5	0	0	0	0	487
6	0	0	0	0	496
7	0	0	0	0	492
8	0	0	0	0	504
9	0	0	0	0	498
10	0	0	0	0	497
11	0	0	0	0	507
12	0	0	0	0	503
13	0	0	0	0	515
14	0	0	0	0	510
15	0	0	0	0	512
0	0	0	0	0	520
1	0	0	0	0	514
2	0	0	0	0	527
3	0	0	0	0	516
4	0	0	0	0	513
5	0	0	0	0	520
6	0	0	0	0	514
7	0	0	0	0	525
8	0	0	0	0	515
9	0	0	0	0	513
10	0	0	0	0	518
11	0	0	0	0	511
12	0	0	0	0	523
13	0	0	0	0	513
14	0	0	0	0	512
15	0	0	0	0	519
0	0	0	0	0	512
1	0	0	0	0	524
2	0	0	0	0	515
3	0	0	0	0	512
4	0	0	0	0	518
5	0	0	0	0	511
6	0	0	0	0	523
7	0	0	0	0	513
8	0	0	0	0	510
9	0	0	0	0	516
10	0	0	0	0	511
11	0	0	0	0	522
12	0	0	0	0	507
13	0	0	0	0	504
14	0	0	0	0	507
15	0	0	0	0	499
0	0	0	0	0	509
1	0	0	0	0	499
2	0	0	0	0	500
3	0	0	0	0	505
4	0	0	0	0	499
5	0	0	0	0	513
6	0	0	0	0	505
7	0	0	0	0	505
8	0	0	0	0	511
9	0	0	0	0	504
10	0	0	0	0	515
11	0	0	0	0	506
12	0	0	0	0	501
13	0	0	0	0	507
14	0	0	0	0	495
15	0	0	0	0	502
0	0	0	0	0	492
1	0	0	0	0	489
2	0	0	0	0	496
3	0	0	0	0	491
4	0	0	0	0	504
5	0	0	0	0	497
6	0	0	0	0	498
7	0	0	0	0	506
8	0	0	0	0	506
9	0	0	0	0	518
10	0	0	0	0	506
11	0	0	0	0	504
12	0	0	0	0	506
13	0	0	0	0	495
14	0	0	0	0	505
15	0	0	0	0	497
0	0	0	0	0	496
1	0	0	0	0	495
2	0	0	0	0	458
3	0	0	0	0	502
4	0	0	0	0	679
5	0	0	0	0	975
6	0	0	0	0	674
7	0	0	0	0	445
8	0	0	0	0	424
9	0	0	0	0	417
10	0	0	0	0	422
11	0	0	0	0	438
12	0	0	0	0	440
13	0	0	0	0	461
14	0	0	0	0	460
15	0	0	0	0	465
0	0	0	0	0	476
1	0	0	0	0	473
2	0	0	0	0	490
3	0	0	0	0	486
4	0	0	0	0	486
5	0	0	0	0	493
6	0	0	0	0	489
7	0	0	0	0	501
8	0	0	0	0	492
9	0	0	0	0	495
10	0	0	0	0	501
11	0	0	0	0	496
12	0	0	0	0	509
13	0	0	0	0	502
14	0	0	0	0	502
15	0	0	0	0	510
0	0	0	0	0	507
1	0	0	0	0	518
2	0	0	0	0	512
3	0	0	0	0	517
4	0	0	0	0	522
5	0	0	0	0	516
6	0	0	0	0	518
7	0	0	0	0	506
8	0	0	0	0	501
9	0	0	0	0	503
10	0	0	0	0	498
11	0	0	0	0	506
12	0	0	0	0	499
13	0	0	0	0	496
14	0	0	0	0	503
15	0	0	0	0	496
0	0	0	0	0	508
1	0	0	0	0	501
2	0	0	0	0	500
3	0	0	0	0	507
4	0	0	0	0	504
5	0	0	0	0	514
6	0	0	0	0	507
7	0	0	0	0	508
8	0	0	0	0	515
9	0	0	0	0	511
10	0	0	0	0	520
11	0	0	0	0	514
12	0	0	0	0	513
13	0	0	0	0	518
14	0	0	0	0	512
15	0	0	0	0	522
0	0	0	0	0	515
1	0	0	0	0	514
2	0	0	0	0	518
3	0	0	0	0	513
4	0	0	0	0	524
5	0	0	0	0	515
6	0	0	0	0	513
7	0	0	0	0	516
8	0	0	0	0	511
9	0	0	0	0	521
10	0	0	0	0	512
11	0	0	0	0	511
12	0	0	0	0	515
13	0	0	0	0	509
14	0	0	0	0	520
15	0	0	0	0	512
0	0	0	0	0	510
1	0	0	0	0	513
2	0	0	0	0	508
3	0	0	0	0	520
4	0	0	0	0	511
5	0	0	0	0	518
6	0	0	0	0	522
7	0	0	0	0	512
8	0	0	0	0	521
9	0	0	0	0	512
10	0	0	0	0	510
11	0	0	0	0	515
12	0	0	0	0	510
13	0	0	0	0	519
14	0	0	0	0	504
15	0	0	0	0	473
0	0	0	0	0	501
1	0	0	0	0	670
2	0	0	0	0	987
3	0	0	0	0	685
4	0	0	0	0	459
5	0	0	0	0	423
6	0	0	0	0	418
7	0	0	0	0	434
8	0	0	0	0	434
9	0	0	0	0	442
10	0	0	0	0	453
11	0	0	0	0	455
12	0	0	0	0	470
13	0	0	0	0	469
14	0	0	0	0	472
15	0	0	0	0	480
0	0	0	0	0	478
1	0	0	0	0	488
2	0	0	0	0	483
3	0	0	0	0	485
4	0	0	0	0	490
5	0	0	0	0	486
6	0	0	0	0	496
7	0	0	0	0	489
8	0	0	0	0	493
9	0	0	0	0	499
10	0	0	0	0	497
11	0	0	0	0	508
12	0	0	0	0	502
13	0	0	0	0	503
14	0	0	0	0	509
15	0	0	0	0	509
0	0	0	0	0	521
1	0	0	0	0	518
2	0	0	0	0	520
3	0	0	0	0	523
4	0	0	0	0	517
5	0	0	0	0	527
6	0	0	0	0	519
7	0	0	0	0	519
8	0	0	0	0	520
9	0	0	0	0	515
10	0	0	0	0	523
11	0	0	0	0	513
12	0	0	0	0	512
13	0	0	0	0	512
14	0	0	0	0	508
15	0	0	0	0	516
0	0	0	0	0	508
1	0	0	0	0	511
2	0	0	0	0	513
3	0	0	0	0	508
4	0	0	0	0	514
5	0	0	0	0	508
6	0	0	0	0	511
7	0	0	0	0	512
8	0	0	0	0	508
9	0	0	0	0	518
10	0	0	0	0	510
11	0	0	0	0	512
12	0	0	0	0	514
13	0	0	0	0	509
14	0	0	0	0	514
15	0	0	0	0	507
0	0	0	0	0	507
1	0	0	0	0	510
2	0	0	0	0	505
3	0	0	0	0	513
4	0	0	0	0	507
5	0	0	0	0	504
6	0	0	0	0	509
7	0	0	0	0	503
8	0	0	0	0	511
9	0	0	0	0	504
10	0	0	0	0	504
11	0	0	0	0	509
12	0	0	0	0	504
13	0	0	0	0	519
14	0	0	0	0	508
15	0	0	0	0	506
0	0	0	0	0	509
1	0	0	0	0	499
2	0	0	0	0	508
3	0	0	0	0	500
4	0	0	0	0	501
5	0	0	0	0	503
6	0	0	0	0	482
7	0	0	0	0	472
8	0	0	0	0	512
9	0	0	0	0	716
10	0	0	0	0	924
11	0	0	0	0	580
12	0	0	0	0	449
13	0	0	0	0	420
14	0	0	0	0	423
15	0	0	0	0	428
0	0	0	0	0	432
1	0	0	0	0	448
2	0	0	0	0	445
3	0	0	0	0	452
4	0	0	0	0	461
5	0	0	0	0	462
6	0	0	0	0	477
7	0	0	0	0	472
8	0	0	0	0	477
9	0	0	0	0	483
10	0	0	0	0	480
11	0	0	0	0	493
12	0	0	0	0	487
13	0	0	0	0	489
14	0	0	0	0	494
15	0	0	0	0	488
0	0	0	0	0	500
1	0	0	0	0	495
2	0	0	0	0	500
3	0	0	0	0	504
4	0	0	0	0	502
5	0	0	0	0	512
6	0	0	0	0	509
7	0	0	0	0	513
8	0	0	0	0	515
9	0	0	0	0	511
10	0	0	0	0	519
11	0	0	0	0	512
12	0	0	0	0	512
13	0	0	0	0	516
14	0	0	0	0	510
15	0	0	0	0	520
0	0	0	0	0	512
1	0	0	0	0	511
2	0	0	0	0	513
3	0	0	0	0	510
4	0	0	0	0	517
5	0	0	0	0	509
6	0	0	0	0	512
7	0	0	0	0	514
8	0	0	0	0	510
9	0	0	0	0	518
10	0	0	0	0	507
11	0	0	0	0	504
12	0	0	0	0	509
13	0	0	0	0	502
14	0	0	0	0	511
15	0	0	0	0	503
0	0	0	0	0	506
1	0	0	0	0	508
2	0	0	0	0	501
3	0	0	0	0	510
4	0	0	0	0	504
5	0	0	0	0	508
6	0	0	0	0	515
7	0	0	0	0	515
8	0	0	0	0	527
9	0	0	0	0	514
10	0	0	0	0	512
11	0	0	0	0	513
12	0	0	0	0	504
13	0	0	0	0	519
14	0	0	0	0	516
15	0	0	0	0	518
0	0	0	0	0	519
1	0	0	0	0	492
2	0	0	0	0	489
3	0	0	0	0	534
4	0	0	0	0	729
5	0	0	0	0	887
6	0	0	0	0	558
7	0	0	0	0	450
8	0	0	0	0	429
9	0	0	0	0	434
10	0	0	0	0	442
11	0	0	0	0	443
12	0	0	0	0	461
13	0	0	0	0	457
14	0	0	0	0	464
15	0	0	0	0	472
0	0	0	0	0	472
1	0	0	0	0	487
2	0	0	0	0	481
3	0	0	0	0	485
4	0	0	0	0	489
5	0	0	0	0	487
6	0	0	0	0	500
7	0	0	0	0	493
8	0	0	0	0	497
9	0	0	0	0	499
10	0	0	0	0	496
11	0	0	0	0	509
12	0	0	0	0	503
13	0	0	0	0	505
14	0	0	0	0	510
15	0	0	0	0	506
0	0	0	0	0	517
1	0	0	0	0	509
2	0	0	0	0	510
3	0	0	0	0	511
4	0	0	0	0	504
5	0	0	0	0	517
6	0	0	0	0	506
7	0	0	0	0	509
8	0	0	0	0	511
9	0	0	0	0	505
10	0	0	0	0	519
11	0	0	0	0	508
12	0	0	0	0	511
13	0	0	0	0	512
14	0	0	0	0	506
15	0	0	0	0	526
0	0	0	0	0	516
1	0	0	0	0	520
2	0	0	0	0	517
3	0	0	0	0	512
4	0	0	0	0	521
5	0	0	0	0	509
6	0	0	0	0	511
7	0	0	0	0	508
8	0	0	0	0	500
9	0	0	0	0	510
10	0	0	0	0	499
11	0	0	0	0	504
12	0	0	0	0	505
13	0	0	0	0	507
14	0	0	0	0	519
15	0	0	0	0	505
0	0	0	0	0	505
1	0	0	0	0	502
2	0	0	0	0	495
3	0	0	0	0	510
4	0	0	0	0	497
5	0	0	0	0	501
6	0	0	0	0	500
7	0	0	0	0	466
8	0	0	0	0	484
9	0	0	0	0	566
10	0	0	0	0	824
11	0	0	0	0	780
12	0	0	0	0	486
13	0	0	0	0	432
14	0	0	0	0	419
15	0	0	0	0	428
0	0	0	0	0	438
1	0	0	0	0	443
2	0	0	0	0	461
3	0	0	0	0	460
4	0	0	0	0	466
5	0	0	0	0	473
6	0	0	0	0	468
7	0	0	0	0	485
8	0	0	0	0	481
9	0	0	0	0	488
10	0	0	0	0	491
11	0	0	0	0	487
12	0	0	0	0	503
13	0	0	0	0	493
14	0	0	0	0	499
15	0	0	0	0	501
0	0	0	0	0	499
1	0	0	0	0	514
2	0	0	0	0	505
3	0	0	0	0	513
4	0	0	0	0	515
5	0	0	0	0	508
6	0	0	0	0	526
7	0	0	0	0	514
8	0	0	0	0	517
9	0	0	0	0	513
10	0	0	0	0	503
11	0	0	0	0	518
12	0	0	0	0	507
13	0	0	0	0	513
14	0	0	0	0	514
15	0	0	0	0	510
0	0	0	0	0	522
1	0	0	0	0	511
2	0	0	0	0	513
3	0	0	0	0	517
4	0	0	0	0	508
5	0	0	0	0	523
6	0	0	0	0	516
7	0	0	0	0	517
8	0	0	0	0	517
9	0	0	0	0	508
10	0	0	0	0	519
11	0	0	0	0	510
12	0	0	0	0	515
13	0	0	0	0	515
14	0	0	0	0	509
15	0	0	0	0	522
0	0	0	0	0	521
1	0	0	0	0	528
2	0	0	0	0	521
3	0	0	0	0	508
4	0	0	0	0	517
5	0	0	0	0	506
6	0	0	0	0	511
7	0	0	0	0	511
8	0	0	0	0	504
9	0	0	0	0	518
10	0	0	0	0	489
11	0	0	0	0	484
12	0	0	0	0	551
13	0	0	0	0	740
14	0	0	0	0	885
15	0	0	0	0	545
0	0	0	0	0	444
1	0	0	0	0	435
2	0	0	0	0	435
3	0	0	0	0	454
4	0	0	0	0	450
5	0	0	0	0	465
6	0	0	0	0	470
7	0	0	0	0	466
8	0	0	0	0	485
9	0	0	0	0	478
10	0	0	0	0	486
11	0	0	0	0	488
12	0	0	0	0	484
13	0	0	0	0	503
14	0	0	0	0	496
15	0	0	0	0	506
0	0	0	0	0	505
1	0	0	0	0	500
2	0	0	0	0	515
3	0	0	0	0	508
4	0	0	0	0	516
5	0	0	0	0	516
6	0	0	0	0	510
7	0	0	0	0	524
8	0	0	0	0	516
9	0	0	0	0	524
10	0	0	0	0	519
11	0	0	0	0	508
12	0	0	0	0	518
13	0	0	0	0	505
14	0	0	0	0	513
15	0	0	0	0	508
0	0	0	0	0	503
1	0	0	0	0	518
2	0	0	0	0	508
3	0	0	0	0	519
4	0	0	0	0	511
5	0	0	0	0	505
6	0	0	0	0	518
7	0	0	0	0	512
8	0	0	0	0	517
9	0	0	0	0	514
10	0	0	0	0	506
11	0	0	0	0	521
12	0	0	0	0	512
13	0	0	0	0	517
14	0	0	0	0	512
15	0	0	0	0	505
0	0	0	0	0	520
1	0	0	0	0	514
2	0	0	0	0	520
3	0	0	0	0	529
4	0	0	0	0	518
5	0	0	0	0	526
6	0	0	0	0	513
7	0	0	0	0	515
8	0	0	0	0	506
9	0	0	0	0	500
10	0	0	0	0	513
11	0	0	0	0	503
12	0	0	0	0	512
13	0	0	0	0	485
14	0	0	0	0	481
15	0	0	0	0	586
0	0	0	0	0	811
1	0	0	0	0	834
2	0	0	0	0	508
3	0	0	0	0	420
4	0	0	0	0	430
5	0	0	0	0	428
6	0	0	0	0	440
7	0	0	0	0	448
8	0	0	0	0	449
9	0	0	0	0	468
10	0	0	0	0	466
11	0	0	0	0	477
12	0	0	0	0	477
13	0	0	0	0	474
14	0	0	0	0	495
15	0	0	0	0	487
0	0	0	0	0	497
1	0	0	0	0	493
2	0	0	0	0	492
3	0	0	0	0	510
4	0	0	0	0	501
5	0	0	0	0	512
6	0	0	0	0	511
7	0	0	0	0	504
8	0	0	0	0	523
9	0	0	0	0	512
10	0	0	0	0	523
11	0	0	0	0	518
12	0	0	0	0	511
13	0	0	0	0	521
14	0	0	0	0	508
15	0	0	0	0	514
0	0	0	0	0	507
1	0	0	0	0	500
2	0	0	0	0	510
3	0	0	0	0	504
4	0	0	0	0	512
5	0	0	0	0	511
6	0	0	0	0	505
7	0	0	0	0	519
8	0	0	0	0	509
9	0	0	0	0	521
10	0	0	0	0	514
11	0	0	0	0	505
12	0	0	0	0	518
13	0	0	0	0	510
14	0	0	0	0	518
15	0	0	0	0	510
0	0	0	0	0	504
1	0	0	0	0	519
2	0	0	0	0	508
3	0	0	0	0	517
4	0	0	0	0	512
5	0	0	0	0	501
6	0	0	0	0	516
7	0	0	0	0	511
8	0	0	0	0	524
9	0	0	0	0	522
10	0	0	0	0	516
11	0	0	0	0	519
12	0	0	0	0	510
13	0	0	0	0	515
14	0	0	0	0	505
15	0	0	0	0	496
0	0	0	0	0	510
1	0	0	0	0	502
2	0	0	0	0	511
3	0	0	0	0	486
4	0	0	0	0	478
5	0	0	0	0	558
6	0	0	0	0	763
7	0	0	0	0	898
8	0	0	0	0	529
9	0	0	0	0	420
10	0	0	0	0	425
11	0	0	0	0	427
12	0	0	0	0	440
13	0	0	0	0	442
14	0	0	0	0	443
15	0	0	0	0	463
0	0	0	0	0	463
1	0	0	0	0	480
2	0	0	0	0	478
3	0	0	0	0	477
4	0	0	0	0	494
5	0	0	0	0	489
6	0	0	0	0	503
7	0	0	0	0	499
8	0	0	0	0	498
9	0	0	0	0	510
10	0	0	0	0	508
11	0	0	0	0	515
12	0	0	0	0	512
13	0	0	0	0	510
14	0	0	0	0	525
15	0	0	0	0	514
0	0	0	0	0	524
1	0	0	0	0	517
2	0	0	0	0	507
3	0	0	0	0	520
4	0	0	0	0	504
5	0	0	0	0	508
6	0	0	0	0	501
7	0	0	0	0	491
8	0	0	0	0	505
9	0	0	0	0	497
10	0	0	0	0	512
11	0	0	0	0	503
12	0	0	0	0	496
13	0	0	0	0	507
14	0	0	0	0	501
15	0	0	0	0	513
0	0	0	0	0	507
1	0	0	0	0	502
2	0	0	0	0	512
3	0	0	0	0	500
4	0	0	0	0	510
5	0	0	0	0	499
6	0	0	0	0	497
7	0	0	0	0	508
8	0	0	0	0	501
9	0	0	0	0	507
10	0	0	0	0	503
11	0	0	0	0	497
12	0	0	0	0	512
13	0	0	0	0	501
14	0	0	0	0	515
15	0	0	0	0	508
0	0	0	0	0	509
1	0	0	0	0	533
2	0	0	0	0	513
3	0	0	0	0	522
4	0	0	0	0	515
5	0	0	0	0	500
6	0	0	0	0	510
7	0	0	0	0	501
8	0	0	0	0	514
9	0	0	0	0	511
10	0	0	0	0	499
11	0	0	0	0	487
12	0	0	0	0	491
13	0	0	0	0	615
14	0	0	0	0	872
15	0	0	0	0	787
0	0	0	0	0	485
1	0	0	0	0	416
2	0	0	0	0	431
3	0	0	0	0	430
4	0	0	0	0	433
5	0	0	0	0	455
6	0	0	0	0	457
7	0	0	0	0	479
8	0	0	0	0	473
9	0	0	0	0	474
10	0	0	0	0	487
11	0	0	0	0	483
12	0	0	0	0	499
13	0	0	0	0	495
14	0	0	0	0	495
15	0	0	0	0	513
0	0	0	0	0	502
1	0	0	0	0	516
2	0	0	0	0	510
3	0	0	0	0	507
4	0	0	0	0	524
5	0	0	0	0	518
6	0	0	0	0	531
7	0	0	0	0	519
8	0	0	0	0	516
9	0	0	0	0	523
10	0	0	0	0	513
11	0	0	0	0	521
12	0	0	0	0	509
13	0	0	0	0	498
14	0	0	0	0	510
15	0	0	0	0	495
0	0	0	0	0	513
1	0	0	0	0	500
2	0	0	0	0	502
3	0	0	0	0	513
4	0	0	0	0	503
5	0	0	0	0	523
6	0	0	0	0	512
7	0	0	0	0	505
8	0	0	0	0	515
9	0	0	0	0	509
10	0	0	0	0	521
11	0	0	0	0	511
12	0	0	0	0	504
13	0	0	0	0	519
14	0	0	0	0	512
15	0	0	0	0	521
0	0	0	0	0	514
1	0	0	0	0	506
2	0	0	0	0	519
3	0	0	0	0	510
4	0	0	0	0	525
5	0	0	0	0	513
6	0	0	0	0	506
7	0	0	0	0	522
8	0	0	0	0	510
9	0	0	0	0	520
10	0	0	0	0	513
11	0	0	0	0	508
12	0	0	0	0	524
13	0	0	0	0	520
14	0	0	0	0	530
15	0	0	0	0	516
0	0	0	0	0	508
1	0	0	0	0	516
2	0	0	0	0	500
3	0	0	0	0	513
4	0	0	0	0	503
5	0	0	0	0	499
6	0	0	0	0	506
7	0	0	0	0	474
8	0	0	0	0	500
9	0	0	0	0	607
10	0	0	0	0	870
11	0	0	0	0	798
12	0	0	0	0	466
13	0	0	0	0	424
14	0	0	0	0	418
15	0	0	0	0	420
0	0	0	0	0	440
1	0	0	0	0	440
2	0	0	0	0	459
3	0	0	0	0	457
4	0	0	0	0	462
5	0	0	0	0	477
6	0	0	0	0	472
7	0	0	0	0	489
8	0	0	0	0	484
9	0	0	0	0	484
10	0	0	0	0	495
11	0	0	0	0	493
12	0	0	0	0	508
13	0	0	0	0	501
14	0	0	0	0	499
15	0	0	0	0	511
0	0	0	0	0	504
1	0	0	0	0	524
2	0	0	0	0	512
3	0	0	0	0	511
4	0	0	0	0	520
5	0	0	0	0	511
6	0	0	0	0	525
7	0	0	0	0	512
8	0	0	0	0	502
9	0	0	0	0	510
10	0	0	0	0	498
11	0	0	0	0	513
12	0	0	0	0	503
13	0	0	0	0	502
14	0	0	0	0	512
15	0	0	0	0	505
0	0	0	0	0	520
1	0	0	0	0	511
2	0	0	0	0	508
3	0	0	0	0	518
4	0	0	0	0	508
5	0	0	0	0	524
6	0	0	0	0	512
7	0	0	0	0	509
8	0	0	0	0	518
9	0	0	0	0	510
10	0	0	0	0	519
11	0	0	0	0	508
12	0	0	0	0	505
13	0	0	0	0	514
14	0	0	0	0	504
15	0	0	0	0	519
0	0	0	0	0	509
1	0	0	0	0	506
2	0	0	0	0	516
3	0	0	0	0	507
4	0	0	0	0	523
5	0	0	0	0	508
6	0	0	0	0	504
7	0	0	0	0	514
8	0	0	0	0	504
9	0	0	0	0	518
10	0	0	0	0	508
11	0	0	0	0	504
12	0	0	0	0	512
13	0	0	0	0	503
14	0	0	0	0	518
15	0	0	0	0	510
0	0	0	0	0	506
1	0	0	0	0	514
2	0	0	0	0	508
3	0	0	0	0	523
4	0	0	0	0	515
5	0	0	0	0	519
6	0	0	0	0	521
7	0	0	0	0	508
8	0	0	0	0	519
9	0	0	0	0	505
10	0	0	0	0	499
11	0	0	0	0	510
12	0	0	0	0	502
13	0	0	0	0	517
14	0	0	0	0	495
15	0	0	0	0	471
0	0	0	0	0	522
1	0	0	0	0	711
2	0	0	0	0	992
3	0	0	0	0	613
4	0	0	0	0	425
5	0	0	0	0	417
6	0	0	0	0	417
7	0	0	0	0	439
8	0	0	0	0	435
9	0	0	0	0	442
10	0	0	0	0	456
11	0	0	0	0	455
12	0	0	0	0	476
13	0	0	0	0	471
14	0	0	0	0	473
15	0	0	0	0	484
0	0	0	0	0	480
1	0	0	0	0	500
2	0	0	0	0	491
3	0	0	0	0	490
4	0	0	0	0	500
5	0	0	0	0	492
6	0	0	0	0	511
7	0	0	0	0	501
8	0	0	0	0	504
9	0	0	0	0	514
10	0	0	0	0	508
11	0	0	0	0	524
12	0	0	0	0	512
13	0	0	0	0	512
14	0	0	0	0	519
15	0	0	0	0	506
0	0	0	0	0	518
1	0	0	0	0	505
2	0	0	0	0	502
3	0	0	0	0	509
4	0	0	0	0	502
5	0	0	0	0	517
6	0	0	0	0	505
7	0	0	0	0	505
8	0	0	0	0	512
9	0	0	0	0	505
10	0	0	0	0	523
11	0	0	0	0	511
12	0	0	0	0	512
13	0	0	0	0	518
14	0	0	0	0	509
15	0	0	0	0	522
0	0	0	0	0	512
1	0	0	0	0	513
2	0	0	0	0	518
3	0	0	0	0	508
4	0	0	0	0	523
5	0	0	0	0	513
6	0	0	0	0	512
7	0	0	0	0	517
8	0	0	0	0	509
9	0	0	0	0	523
10	0	0	0	0	513
11	0	0	0	0	513
12	0	0	0	0	518
13	0	0	0	0	511
14	0	0	0	0	525
15	0	0	0	0	515
0	0	0	0	0	514
1	0	0	0	0	518
2	0	0	0	0	511
3	0	0	0	0	525
4	0	0	0	0	514
5	0	0	0	0	515
6	0	0	0	0	519
7	0	0	0	0	509
8	0	0	0	0	525
9	0	0	0	0	516
10	0	0	0	0	517
11	0	0	0	0	519
12	0	0	0	0	513
13	0	0	0	0	527
14	0	0	0	0	514
15	0	0	0	0	516
0	0	0	0	0	518
1	0	0	0	0	511
2	0	0	0	0	525
3	0	0	0	0	513
4	0	0	0	0	513
5	0	0	0	0	517
6	0	0	0	0	509
7	0	0	0	0	523
8	0	0	0	0	512
9	0	0	0	0	514
10	0	0	0	0	518
11	0	0	0	0	508
12	0	0	0	0	521
13	0	0	0	0	511
14	0	0	0	0	513
15	0	0	0	0	516
0	0	0	0	0	515
1	0	0	0	0	531
2	0	0	0	0	513
3	0	0	0	0	512
4	0	0	0	0	510
5	0	0	0	0	496
6	0	0	0	0	507
7	0	0	0	0	497
8	0	0	0	0	500
9	0	0	0	0	498
10	0	0	0	0	461
11	0	0	0	0	496
12	0	0	0	0	651
13	0	0	0	0	963
14	0	0	0	0	737
15	0	0	0	0	438
0	0	0	0	0	417
1	0	0	0	0	411
2	0	0	0	0	420
3	0	0	0	0	429
4	0	0	0	0	433
5	0	0	0	0	455
6	0	0	0	0	453
7	0	0	0	0	462
8	0	0	0	0	470
9	0	0	0	0	468
10	0	0	0	0	486
11	0	0	0	0	480
12	0	0	0	0	487
13	0	0	0	0	489
14	0	0	0	0	487
15	0	0	0	0	503
0	0	0	0	0	496
1	0	0	0	0	502
2	0	0	0	0	503
3	0	0	0	0	497
4	0	0	0	0	513
5	0	0	0	0	504
6	0	0	0	0	512
7	0	0	0	0	513
8	0	0	0	0	509
9	0	0	0	0	526
10	0	0	0	0	518
11	0	0	0	0	526
12	0	0	0	0	525
13	0	0	0	0	515
14	0	0	0	0	524
15	0	0	0	0	512
0	0	0	0	0	512
1	0	0	0	0	512
2	0	0	0	0	504
3	0	0	0	0	518
4	0	0	0	0	509
5	0	0	0	0	512
6	0	0	0	0	513
7	0	0	0	0	505
8	0	0	0	0	518
9	0	0	0	0	509
10	0	0	0	0	513
11	0	0	0	0	512
12	0	0	0	0	506
13	0	0	0	0	519
14	0	0	0	0	511
15	0	0	0	0	515
0	0	0	0	0	514
1	0	0	0	0	507
2	0	0	0	0	520
3	0	0	0	0	511
4	0	0	0	0	515
5	0	0	0	0	513
6	0	0	0	0	504
7	0	0	0	0	515
8	0	0	0	0	506
9	0	0	0	0	510
10	0	0	0	0	510
11	0	0	0	0	504
12	0	0	0	0	516
13	0	0	0	0	507
14	0	0	0	0	513
15	0	0	0	0	509
0	0	0	0	0	500
1	0	0	0	0	513
2	0	0	0	0	506
3	0	0	0	0	511
4	0	0	0	0	511
5	0	0	0	0	504
6	0	0	0	0	515
7	0	0	0	0	505
8	0	0	0	0	511
9	0	0	0	0	509
10	0	0	0	0	503
11	0	0	0	0	514
12	0	0	0	0	504
13	0	0	0	0	510
14	0	0	0	0	507
15	0	0	0	0	502
0	0	0	0	0	512
1	0	0	0	0	503
2	0	0	0	0	510
3	0	0	0	0	508
4	0	0	0	0	502
5	0	0	0	0	513
6	0	0	0	0	504
7	0	0	0	0	513
8	0	0	0	0	510
9	0	0	0	0	509
10	0	0	0	0	521
11	0	0	0	0	507
12	0	0	0	0	512
13	0	0	0	0	507
14	0	0	0	0	497
15	0	0	0	0	507
0	0	0	0	0	501
1	0	0	0	0	508
2	0	0	0	0	498
3	0	0	0	0	462
4	0	0	0	0	500
5	0	0	0	0	671
6	0	0	0	0	983
7	0	0	0	0	693
8	0	0	0	0	440
9	0	0	0	0	423
10	0	0	0	0	414
11	0	0	0	0	427
12	0	0	0	0	433
13	0	0	0	0	435
14	0	0	0	0	456
15	0	0	0	0	455
0	0	0	0	0	467
1	0	0	0	0	470
2	0	0	0	0	469
3	0	0	0	0	486
4	0	0	0	0	482
5	0	0	0	0	490
6	0	0	0	0	489
7	0	0	0	0	483
8	0	0	0	0	497
9	0	0	0	0	491
10	0	0	0	0	499
11	0	0	0	0	497
12	0	0	0	0	492
13	0	0	0	0	506
14	0	0	0	0	502
15	0	0	0	0	511
0	0	0	0	0	512
1	0	0	0	0	509
2	0	0	0	0	523
3	0	0	0	0	518
4	0	0	0	0	528
5	0	0	0	0	524
6	0	0	0	0	517
7	0	0	0	0	527
8	0	0	0	0	520
9	0	0	0	0	527
10	0	0	0	0	521
11	0	0	0	0	514
12	0	0	0	0	524
13	0	0	0	0	518
14	0	0	0	0	524
15	0	0	0	0	518
0	0	0	0	0	513
1	0	0	0	0	525
2	0	0	0	0	517
3	0	0	0	0	522
4	0	0	0	0	517
5	0	0	0	0	511
6	0	0	0	0	519
7	0	0	0	0	511
8	0	0	0	0	521
9	0	0	0	0	518
10	0	0	0	0	512
11	0	0	0	0	524
12	0	0	0	0	515
13	0	0	0	0	519
14	0	0	0	0	514
15	0	0	0	0	507
0	0	0	0	0	511
1	0	0	0	0	497
2	0	0	0	0	503
3	0	0	0	0	496
4	0	0	0	0	490
5	0	0	0	0	502
6	0	0	0	0	494
7	0	0	0	0	503
8	0	0	0	0	499
9	0	0	0	0	497
10	0	0	0	0	508
11	0	0	0	0	500
12	0	0	0	0	510
13	0	0	0	0	505
14	0	0	0	0	500
15	0	0	0	0	512
0	0	0	0	0	505
1	0	0	0	0	512
2	0	0	0	0	506
3	0	0	0	0	501
4	0	0	0	0	511
5	0	0	0	0	503
6	0	0	0	0	509
7	0	0	0	0	502
8	0	0	0	0	494
9	0	0	0	0	504
10	0	0	0	0	497
11	0	0	0	0	506
12	0	0	0	0	499
13	0	0	0	0	495
14	0	0	0	0	507
15	0	0	0	0	499
0	0	0	0	0	510
1	0	0	0	0	510
2	0	0	0	0	508
3	0	0	0	0	513
4	0	0	0	0	505
5	0	0	0	0	514
6	0	0	0	0	504
7	0	0	0	0	499
8	0	0	0	0	510
9	0	0	0	0	504
10	0	0	0	0	511
11	0	0	0	0	475
12	0	0	0	0	473
13	0	0	0	0	587
14	0	0	0	0	878
15	0	0	0	0	844
0	0	0	0	0	505
1	0	0	0	0	423
2	0	0	0	0	427
3	0	0	0	0	423
4	0	0	0	0	439
5	0	0	0	0	440
6	0	0	0	0	444
7	0	0	0	0	461
8	0	0	0	0	462
9	0	0	0	0	477
10	0	0	0	0	474
11	0	0	0	0	473
12	0	0	0	0	486
13	0	0	0	0	482
14	0	0	0	0	492
15	0	0	0	0	489
0	0	0	0	0	487
1	0	0	0	0	498
2	0	0	0	0	491
3	0	0	0	0	499
4	0	0	0	0	494
5	0	0	0	0	491
6	0	0	0	0	503
7	0	0	0	0	496
8	0	0	0	0	504
9	0	0	0	0	495
10	0	0	0	0	491
11	0	0	0	0	500
12	0	0	0	0	496
13	0	0	0	0	509
14	0	0	0	0	503
15	0	0	0	0	499
0	0	0	0	0	507
1	0	0	0	0	500
2	0	0	0	0	512
3	0	0	0	0	506
4	0	0	0	0	500
5	0	0	0	0	506
6	0	0	0	0	494
7	0	0	0	0	500
8	0	0	0	0	491
9	0	0	0	0	488
10	0	0	0	0	497
11	0	0	0	0	489
12	0	0	0	0	496
13	0	0	0	0	490
14	0	0	0	0	489
15	0	0	0	0	500
0	0	0	0	0	497
1	0	0	0	0	508
2	0	0	0	0	504
3	0	0	0	0	501
4	0	0	0	0	511
5	0	0	0	0	505
6	0	0	0	0	516
7	0	0	0	0	514
8	0	0	0	0	511
9	0	0	0	0	519
10	0	0	0	0	513
11	0	0	0	0	524
12	0	0	0	0	515
13	0	0	0	0	512
14	0	0	0	0	520
15	0	0	0	0	515
0	0	0	0	0	525
1	0	0	0	0	518
2	0	0	0	0	514
3	0	0	0	0	524
4	0	0	0	0	517
5	0	0	0	0	525
6	0	0	0	0	519
7	0	0	0	0	515
8	0	0	0	0	522
9	0	0	0	0	517
10	0	0	0	0	524
11	0	0	0	0	517
12	0	0	0	0	513
13	0	0	0	0	520
14	0	0	0	0	513
15	0	0	0	0	523
0	0	0	0	0	515
1	0	0	0	0	511
2	0	0	0	0	519
3	0	0	0	0	512
4	0	0	0	0	519
5	0	0	0	0	512
6	0	0	0	0	511
7	0	0	0	0	521
8	0	0	0	0	520
9	0	0	0	0	527
10	0	0	0	0	515
11	0	0	0	0	513
12	0	0	0	0	516
13	0	0	0	0	508
14	0	0	0	0	517
15	0	0	0	0	510
0	0	0	0	0	507
1	0	0	0	0	498
2	0	0	0	0	471
3	0	0	0	0	526
4	0	0	0	0	755
5	0	0	0	0	958
6	0	0	0	0	600
7	0	0	0	0	448
8	0	0	0	0	432
9	0	0	0	0	425
10	0	0	0	0	429
11	0	0	0	0	444
12	0	0	0	0	447
13	0	0	0	0	464
14	0	0	0	0	462
15	0	0	0	0	464
0	0	0	0	0	479
1	0	0	0	0	474
2	0	0	0	0	487
3	0	0	0	0	483
4	0	0	0	0	482
5	0	0	0	0	492
6	0	0	0	0	487
7	0	0	0	0	497
8	0	0	0	0	493
9	0	0	0	0	492
10	0	0	0	0	498
11	0	0	0	0	495
12	0	0	0	0	506
13	0	0	0	0	500
14	0	0	0	0	498
15	0	0	0	0	509
0	0	0	0	0	507
1	0	0	0	0	518
2	0	0	0	0	514
3	0	0	0	0	515
4	0	0	0	0	524
5	0	0	0	0	518
6	0	0	0	0	527
7	0	0	0	0	519
8	0	0	0	0	516
9	0	0	0	0	521
10	0	0	0	0	516
11	0	0	0	0	525
12	0	0	0	0	519
13	0	0	0	0	516
14	0	0	0	0	519
15	0	0	0	0	511
0	0	0	0	0	520
1	0	0	0	0	512
2	0	0	0	0	509
3	0	0	0	0	513
4	0	0	0	0	509
5	0	0	0	0	517
6	0	0	0	0	510
7	0	0	0	0	509
8	0	0	0	0	514
9	0	0	0	0	509
10	0	0	0	0	516
11	0	0	0	0	510
12	0	0	0	0	508
13	0	0	0	0	512
14	0	0	0	0	508
15	0	0	0	0	516
0	0	0	0	0	508
1	0	0	0	0	507
2	0	0	0	0	511
3	0	0	0	0	505
4	0	0	0	0	513
5	0	0	0	0	505
6	0	0	0	0	504
7	0	0	0	0	509
8	0	0	0	0	505
9	0	0	0	0	515
10	0	0	0	0	507
11	0	0	0	0	507
12	0	0	0	0	510
13	0	0	0	0	504
14	0	0	0	0	513
15	0	0	0	0	505
0	0	0	0	0	502
1	0	0	0	0	507
2	0	0	0	0	502
3	0	0	0	0	512
4	0	0	0	0	504
5	0	0	0	0	504
6	0	0	0	0	510
7	0	0	0	0	508
8	0	0	0	0	521
9	0	0	0	0	512
10	0	0	0	0	507
11	0	0	0	0	511
12	0	0	0	0	501
13	0	0	0	0	507
14	0	0	0	0	502
15	0	0	0	0	500
0	0	0	0	0	504
1	0	0	0	0	477
2	0	0	0	0	475
3	0	0	0	0	524
4	0	0	0	0	766
5	0	0	0	0	892
6	0	0	0	0	553
7	0	0	0	0	443
8	0	0	0	0	419
9	0	0	0	0	420
10	0	0	0	0	430
11	0	0	0	0	431
12	0	0	0	0	448
13	0	0	0	0	449
14	0	0	0	0	454
15	0	0	0	0	465
0	0	0	0	0	463
1	0	0	0	0	478
2	0	0	0	0	474
3	0	0	0	0	475
4	0	0	0	0	483
5	0	0	0	0	480
6	0	0	0	0	491
7	0	0	0	0	486
8	0	0	0	0	489
9	0	0	0	0	491
10	0	0	0	0	489
11	0	0	0	0	502
12	0	0	0	0	495
13	0	0	0	0	498
14	0	0	0	0	505
15	0	0	0	0	501
0	0	0	0	0	511
1	0	0	0	0	505
2	0	0	0	0	508
3	0	0	0	0	513
4	0	0	0	0	508
5	0	0	0	0	517
6	0	0	0	0	510
7	0	0	0	0	508
8	0	0	0	0	512
9	0	0	0	0	504
10	0	0	0	0	515
11	0	0	0	0	508
12	0	0	0	0	508
13	0	0	0	0	511
14	0	0	0	0	507
15	0	0	0	0	517
0	0	0	0	0	511
1	0	0	0	0	510
2	0	0	0	0	515
3	0	0	0	0	508
4	0	0	0	0	520
5	0	0	0	0	511
6	0	0	0	0	511
7	0	0	0	0	512
8	0	0	0	0	504
9	0	0	0	0	515
10	0	0	0	0	508
11	0	0	0	0	506
12	0	0	0	0	513
13	0	0	0	0	508
14	0	0	0	0	518
15	0	0	0	0	510
0	0	0	0	0	511
1	0	0	0	0	516
2	0	0	0	0	511
3	0	0	0	0	519
4	0	0	0	0	512
5	0	0	0	0	510
6	0	0	0	0	515
7	0	0	0	0	510
8	0	0	0	0	528
9	0	0	0	0	529
10	0	0	0	0	529
11	0	0	0	0	529
12	0	0	0	0	520
13	0	0	0	0	526
14	0	0	0	0	514
15	0	0	0	0	512
0	0	0	0	0	513
1	0	0	0	0	507
2	0	0	0	0	505
3	0	0	0	0	473
4	0	0	0	0	508
5	0	0	0	0	674
6	0	0	0	0	926
7	0	0	0	0	615
8	0	0	0	0	444
9	0	0	0	0	421
10	0	0	0	0	432
11	0	0	0	0	430
12	0	0	0	0	447
13	0	0	0	0	445
14	0	0	0	0	453
15	0	0	0	0	461
0	0	0	0	0	459
1	0	0	0	0	475
2	0	0	0	0	467
3	0	0	0	0	473
4	0	0	0	0	482
5	0	0	0	0	478
6	0	0	0	0	495
7	0	0	0	0	486
8	0	0	0	0	490
9	0	0	0	0	495
10	0	0	0	0	491
11	0	0	0	0	505
12	0	0	0	0	497
13	0	0	0	0	503
14	0	0	0	0	507
15	0	0	0	0	502
0	0	0	0	0	515
1	0	0	0	0	508
2	0	0	0	0	512
3	0	0	0	0	514
4	0	0	0	0	505
5	0	0	0	0	515
6	0	0	0	0	502
7	0	0	0	0	510
8	0	0	0	0	511
9	0	0	0	0	505
10	0	0	0	0	518
11	0	0	0	0	510
12	0	0	0	0	506
13	0	0	0	0	508
14	0	0	0	0	504
15	0	0	0	0	515
0	0	0	0	0	507
1	0	0	0	0	508
2	0	0	0	0	512
3	0	0	0	0	502
4	0	0	0	0	513
5	0	0	0	0	504
6	0	0	0	0	503
7	0	0	0	0	504
8	0	0	0	0	496
9	0	0	0	0	510
10	0	0	0	0	499
11	0	0	0	0	499
12	0	0	0	0	505
13	0	0	0	0	498
14	0	0	0	0	509
15	0	0	0	0	502
0	0	0	0	0	503
1	0	0	0	0	515
2	0	0	0	0	505
3	0	0	0	0	512
4	0	0	0	0	500
5	0	0	0	0	498
6	0	0	0	0	499
7	0	0	0	0	490
8	0	0	0	0	505
9	0	0	0	0	497
10	0	0	0	0	499
11	0	0	0	0	473
12	0	0	0	0	475
13	0	0	0	0	576
14	0	0	0	0	819
15	0	0	0	0	783
0	0	0	0	0	505
1	0	0	0	0	427
2	0	0	0	0	441
3	0	0	0	0	434
4	0	0	0	0	446
5	0	0	0	0	457
6	0	0	0	0	458
7	0	0	0	0	478
8	0	0	0	0	473
9	0	0	0	0	483
10	0	0	0	0	489
11	0	0	0	0	485
12	0	0	0	0	502
13	0	0	0	0	496
14	0	0	0	0	504
15	0	0	0	0	508
0	0	0	0	0	505
1	0	0	0	0	521
2	0	0	0	0	513
3	0	0	0	0	516
4	0	0	0	0	521
5	0	0	0	0	516
6	0	0	0	0	535
7	0	0	0	0	525
8	0	0	0	0	530
9	0	0	0	0	533
10	0	0	0	0	524
11	0	0	0	0	537
12	0	0	0	0	523
13	0	0	0	0	518
14	0	0	0	0	516
15	0	0	0	0	504
0	0	0	0	0	516
1	0	0	0	0	505
2	0	0	0	0	509
3	0	0	0	0	512
4	0	0	0	0	507
5	0	0	0	0	521
6	0	0	0	0	511
7	0	0	0	0	515
8	0	0	0	0	518
9	0	0	0	0	509
10	0	0	0	0	520
11	0	0	0	0	510
12	0	0	0	0	511
13	0	0	0	0	511
14	0	0	0	0	504
15	0	0	0	0	516
0	0	0	0	0	504
1	0	0	0	0	507
2	0	0	0	0	511
3	0	0	0	0	503
4	0	0	0	0	519
5	0	0	0	0	510
6	0	0	0	0	525
7	0	0	0	0	525
8	0	0	0	0	512
9	0	0	0	0	519
10	0	0	0	0	504
11	0	0	0	0	507
12	0	0	0	0	505
13	0	0	0	0	499
14	0	0	0	0	513
15	0	0	0	0	503
0	0	0	0	0	481
1	0	0	0	0	492
2	0	0	0	0	581
3	0	0	0	0	851
4	0	0	0	0	775
5	0	0	0	0	499
6	0	0	0	0	432
7	0	0	0	0	425
8	0	0	0	0	445
9	0	0	0	0	440
10	0	0	0	0	453
11	0	0	0	0	459
12	0	0	0	0	454
13	0	0	0	0	474
14	0	0	0	0	467
15	0	0	0	0	474
0	0	0	0	0	481
1	0	0	0	0	479
2	0	0	0	0	497
3	0	0	0	0	489
4	0	0	0	0	497
5	0	0	0	0	500
6	0	0	0	0	494
7	0	0	0	0	510
8	0	0	0	0	502
9	0	0	0	0	510
10	0	0	0	0	511
11	0	0	0	0	507
12	0	0	0	0	524
13	0	0	0	0	516
14	0	0	0	0	521
15	0	0	0	0	519
0	0	0	0	0	507
1	0	0	0	0	519
2	0	0	0	0	507
3	0	0	0	0	508
4	0	0	0	0	506
5	0	0	0	0	498
6	0	0	0	0	515
7	0	0	0	0	505
8	0	0	0	0	511
9	0	0	0	0	511
10	0	0	0	0	503
11	0	0	0	0	518
12	0	0	0	0	508
13	0	0	0	0	512
14	0	0	0	0	510
15	0	0	0	0	503
0	0	0	0	0	516
1	0	0	0	0	507
2	0	0	0	0	512
3	0	0	0	0	511
4	0	0	0	0	504
5	0	0	0	0	518
6	0	0	0	0	508
7	0	0	0	0	515
8	0	0	0	0	516
9	0	0	0	0	508
10	0	0	0	0	530
11	0	0	0	0	518
12	0	0	0	0	518
13	0	0	0	0	513
14	0	0	0	0	499
15	0	0	0	0	510
0	0	0	0	0	502
1	0	0	0	0	510
2	0	0	0	0	508
3	0	0	0	0	498
4	0	0	0	0	492
5	0	0	0	0	482
6	0	0	0	0	580
7	0	0	0	0	813
8	0	0	0	0	811
9	0	0	0	0	517
10	0	0	0	0	429
11	0	0	0	0	434
12	0	0	0	0	437
13	0	0	0	0	436
14	0	0	0	0	460
15	0	0	0	0	457
0	0	0	0	0	472
1	0	0	0	0	477
2	0	0	0	0	473
3	0	0	0	0	492
4	0	0	0	0	484
5	0	0	0	0	494
6	0	0	0	0	495
7	0	0	0	0	489
8	0	0	0	0	509
9	0	0	0	0	502
10	0	0	0	0	508
11	0	0	0	0	510
12	0	0	0	0	503
13	0	0	0	0	517
14	0	0	0	0	509
15	0	0	0	0	516
0	0	0	0	0	516
1	0	0	0	0	509
2	0	0	0	0	526
3	0	0	0	0	516
4	0	0	0	0	520
5	0	0	0	0	512
6	0	0	0	0	499
7	0	0	0	0	512
8	0	0	0	0	500
9	0	0	0	0	505
10	0	0	0	0	506
11	0	0	0	0	499
12	0	0	0	0	512
13	0	0	0	0	505
14	0	0	0	0	510
15	0	0	0	0	510
0	0	0	0	0	502
1	0	0	0	0	515
2	0	0	0	0	505
3	0	0	0	0	513
4	0	0	0	0	511
5	0	0	0	0	504
6	0	0	0	0	516
7	0	0	0	0	504
8	0	0	0	0	512
9	0	0	0	0	508
10	0	0	0	0	502
11	0	0	0	0	515
12	0	0	0	0	505
13	0	0	0	0	514
14	0	0	0	0	515
15	0	0	0	0	516
0	0	0	0	0	527
1	0	0	0	0	513
2	0	0	0	0	517
3	0	0	0	0	508
4	0	0	0	0	496
5	0	0	0	0	514
6	0	0	0	0	506
7	0	0	0	0	515
8	0	0	0	0	508
9	0	0	0	0	476
10	0	0	0	0	503
11	0	0	0	0	604
12	0	0	0	0	877
13	0	0	0	0	774
14	0	0	0	0	479
15	0	0	0	0	435
0	0	0	0	0	428
1	0	0	0	0	448
2	0	0	0	0	448
3	0	0	0	0	449
4	0	0	0	0	473
5	0	0	0	0	470
6	0	0	0	0	484
7	0	0	0	0	486
8	0	0	0	0	480
9	0	0	0	0	496
10	0	0	0	0	491
11	0	0	0	0	504
12	0	0	0	0	502
13	0	0	0	0	493
14	0	0	0	0	513
15	0	0	0	0	508
0	0	0	0	0	514
1	0	0	0	0	515
2	0	0	0	0	506
3	0	0	0	0	521
4	0	0	0	0	513
5	0	0	0	0	524
6	0	0	0	0	520
7	0	0	0	0	513
8	0	0	0	0	525
9	0	0	0	0	511
10	0	0	0	0	516
11	0	0	0	0	504
12	0	0	0	0	494
13	0	0	0	0	506
14	0	0	0	0	495
15	0	0	0	0	507
0	0	0	0	0	504
1	0	0	0	0	499
2	0	0	0	0	513
3	0	0	0	0	508
4	0	0	0	0	515
5	0	0	0	0	511
6	0	0	0	0	503
7	0	0	0	0	514
8	0	0	0	0	505
9	0	0	0	0	515
10	0	0	0	0	506
11	0	0	0	0	501
12	0	0	0	0	515
13	0	0	0	0	504
14	0	0	0	0	513
15	0	0	0	0	511
0	0	0	0	0	500
1	0	0	0	0	513
2	0	0	0	0	505
3	0	0	0	0	519
4	0	0	0	0	515
5	0	0	0	0	516
6	0	0	0	0	527
7	0	0	0	0	509
8	0	0	0	0	515
9	0	0	0	0	505
10	0	0	0	0	496
11	0	0	0	0	512
12	0	0	0	0	502
13	0	0	0	0	511
14	0	0	0	0	505
15	0	0	0	0	477
0	0	0	0	0	489
1	0	0	0	0	563
2	0	0	0	0	807
3	0	0	0	0	866
4	0	0	0	0	505
5	0	0	0	0	432
6	0	0	0	0	420
7	0	0	0	0	437
8	0	0	0	0	440
9	0	0	0	0	440
10	0	0	0	0	462
11	0	0	0	0	460
12	0	0	0	0	477
13	0	0	0	0	475
14	0	0	0	0	472
15	0	0	0	0	492
0	0	0	0	0	488
1	0	0	0	0	499
2	0	0	0	0	497
3	0	0	0	0	489
4	0	0	0	0	505
5	0	0	0	0	498
6	0	0	0	0	510
7	0	0	0	0	507
8	0	0	0	0	500
9	0	0	0	0	517
10	0	0	0	0	506
11	0	0	0	0	517
12	0	0	0	0	513
13	0	0	0	0	507
14	0	0	0	0	521
15	0	0	0	0	508
0	0	0	0	0	515
1	0	0	0	0	505
2	0	0	0	0	495
3	0	0	0	0	509
4	0	0	0	0	500
5	0	0	0	0	510
6	0	0	0	0	505
7	0	0	0	0	500
8	0	0	0	0	515
9	0	0	0	0	504
10	0	0	0	0	518
11	0	0	0	0	510
12	0	0	0	0	503
13	0	0	0	0	516
14	0	0	0	0	505
15	0	0	0	0	515
0	0	0	0	0	508
1	0	0	0	0	499
2	0	0	0	0	512
3	0	0	0	0	503
4	0	0	0	0	515
5	0	0	0	0	509
6	0	0	0	0	503
7	0	0	0	0	515
8	0	0	0	0	506
9	0	0	0	0	518
10	0	0	0	0	510
11	0	0	0	0	504
12	0	0	0	0	518
13	0	0	0	0	507
14	0	0	0	0	516
15	0	0	0	0	512
0	0	0	0	0	504
1	0	0	0	0	516
2	0	0	0	0	510
3	0	0	0	0	519
4	0	0	0	0	512
5	0	0	0	0	505
6	0	0	0	0	519
7	0	0	0	0	512
8	0	0	0	0	520
9	0	0	0	0	516
10	0	0	0	0	511
11	0	0	0	0	530
12	0	0	0	0	519
13	0	0	0	0	524
14	0	0	0	0	513
15	0	0	0	0	504
0	0	0	0	0	514
1	0	0	0	0	505
2	0	0	0	0	516
3	0	0	0	0	508
4	0	0	0	0	501
5	0	0	0	0	487
6	0	0	0	0	483
7	0	0	0	0	609
8	0	0	0	0	885
9	0	0	0	0	822
10	0	0	0	0	486
11	0	0	0	0	420
12	0	0	0	0	432
13	0	0	0	0	428
14	0	0	0	0	430
15	0	0	0	0	450
0	0	0	0	0	450
1	0	0	0	0	468
2	0	0	0	0	466
3	0	0	0	0	465
4	0	0	0	0	483
5	0	0	0	0	477
6	0	0	0	0	493
7	0	0	0	0	488
8	0	0	0	0	484
9	0	0	0	0	499
10	0	0	0	0	490
11	0	0	0	0	502
12	0	0	0	0	497
13	0	0	0	0	491
14	0	0	0	0	506
15	0	0	0	0	499
0	0	0	0	0	516
1	0	0	0	0	510
2	0	0	0	0	506
3	0	0	0	0	519
4	0	0	0	0	511
5	0	0	0	0	524
6	0	0	0	0	515
7	0	0	0	0	507
8	0	0	0	0	516
9	0	0	0	0	508
10	0	0	0	0	520
11	0	0	0	0	511
12	0	0	0	0	507
13	0	0	0	0	519
14	0	0	0	0	512
15	0	0	0	0	526
0	0	0	0	0	517
1	0	0	0	0	511
2	0	0	0	0	524
3	0	0	0	0	516
4	0	0	0	0	528
5	0	0	0	0	520
6	0	0	0	0	513
7	0	0	0	0	526
8	0	0	0	0	519
9	0	0	0	0	530
10	0	0	0	0	520
11	0	0	0	0	515
12	0	0	0	0	525
13	0	0	0	0	517
14	0	0	0	0	529
15	0	0	0	0	521
0	0	0	0	0	515
1	0	0	0	0	527
2	0	0	0	0	517
3	0	0	0	0	528
4	0	0	0	0	518
5	0	0	0	0	514
6	0	0	0	0	525
7	0	0	0	0	513
8	0	0	0	0	527
9	0	0	0	0	519
10	0	0	0	0	510
11	0	0	0	0	521
12	0	0	0	0	510
13	0	0	0	0	520
14	0	0	0	0	511
15	0	0	0	0	506
0	0	0	0	0	518
1	0	0	0	0	508
2	0	0	0	0	520
3	0	0	0	0	508
4	0	0	0	0	500
5	0	0	0	0	511
6	0	0	0	0	500
7	0	0	0	0	510
8	0	0	0	0	501
9	0	0	0	0	497
10	0	0	0	0	508
11	0	0	0	0	503
12	0	0	0	0	516
13	0	0	0	0	507
14	0	0	0	0	499
15	0	0	0	0	511
0	0	0	0	0	504
1	0	0	0	0	517
2	0	0	0	0	510
3	0	0	0	0	507
4	0	0	0	0	527
5	0	0	0	0	515
6	0	0	0	0	525
7	0	0	0	0	515
8	0	0	0	0	508
9	0	0	0	0	516
10	0	0	0	0	507
11	0	0	0	0	519
12	0	0	0	0	509
13	0	0	0	0	488
14	0	0	0	0	481
15	0	0	0	0	525
0	0	0	0	0	770
1	0	0	0	0	978
2	0	0	0	0	569
3	0	0	0	0	431
4	0	0	0	0	410
5	0	0	0	0	426
6	0	0	0	0	425
7	0	0	0	0	429
8	0	0	0	0	446
9	0	0	0	0	448
10	0	0	0	0	470
11	0	0	0	0	464
12	0	0	0	0	467
13	0	0	0	0	479
14	0	0	0	0	475
15	0	0	0	0	491
0	0	0	0	0	483
1	0	0	0	0	481
2	0	0	0	0	493
3	0	0	0	0	486
4	0	0	0	0	501
5	0	0	0	0	494
6	0	0	0	0	489
7	0	0	0	0	499
8	0	0	0	0	492
9	0	0	0	0	508
10	0	0	0	0	500
11	0	0	0	0	496
12	0	0	0	0	508
13	0	0	0	0	504
14	0	0	0	0	520
15	0	0	0	0	513
0	0	0	0	0	510
1	0	0	0	0	516
2	0	0	0	0	506
3	0	0	0	0	517
4	0	0	0	0	508
5	0	0	0	0	503
6	0	0	0	0	513
7	0	0	0	0	504
8	0	0	0	0	519
9	0	0	0	0	510
10	0	0	0	0	505
11	0	0	0	0	514
12	0	0	0	0	505
13	0	0	0	0	518
14	0	0	0	0	508
15	0	0	0	0	505
0	0	0	0	0	512
1	0	0	0	0	509
2	0	0	0	0	522
3	0	0	0	0	512
4	0	0	0	0	507
5	0	0	0	0	517
6	0	0	0	0	508
7	0	0	0	0	519
8	0	0	0	0	510
9	0	0	0	0	508
10	0	0	0	0	515
11	0	0	0	0	506
12	0	0	0	0	518
13	0	0	0	0	510
14	0	0	0	0	506
15	0	0	0	0	514
0	0	0	0	0	508
1	0	0	0	0	518
2	0	0	0	0	509
3	0	0	0	0	504
4	0	0	0	0	511
5	0	0	0	0	504
6	0	0	0	0	516
7	0	0	0	0	508
8	0	0	0	0	503
9	0	0	0	0	512
10	0	0	0	0	505
11	0	0	0	0	516
12	0	0	0	0	508
13	0	0	0	0	504
14	0	0	0	0	512
15	0	0	0	0	503
0	0	0	0	0	515
1	0	0	0	0	505
2	0	0	0	0	503
3	0	0	0	0	509
4	0	0	0	0	499
5	0	0	0	0	512
6	0	0	0	0	502
7	0	0	0	0	499
8	0	0	0	0	508
9	0	0	0	0	502
10	0	0	0	0	513
11	0	0	0	0	507
12	0	0	0	0	512
13	0	0	0	0	519
14	0	0	0	0	506
15	0	0	0	0	518
0	0	0	0	0	506
1	0	0	0	0	502
2	0	0	0	0	508
3	0	0	0	0	499
4	0	0	0	0	512
5	0	0	0	0	500
6	0	0	0	0	465
7	0	0	0	0	490
8	0	0	0	0	630
9	0	0	0	0	951
10	0	0	0	0	754
11	0	0	0	0	466
12	0	0	0	0	425
13	0	0	0	0	415
14	0	0	0	0	432
15	0	0	0	0	432
0	0	0	0	0	438
1	0	0	0	0	453
2	0	0	0	0	453
3	0	0	0	0	472
4	0	0	0	0	469
5	0	0	0	0	471
6	0	0	0	0	480
7	0	0	0	0	478
8	0	0	0	0	493
9	0	0	0	0	486
10	0	0	0	0	486
11	0	0	0	0	495
12	0	0	0	0	490
13	0	0	0	0	504
14	0	0	0	0	496
15	0	0	0	0	498
0	0	0	0	0	506
1	0	0	0	0	503
2	0	0	0	0	517
3	0	0	0	0	511
4	0	0	0	0	512
5	0	0	0	0	520
6	0	0	0	0	516
7	0	0	0	0	530
8	0	0	0	0	521
9	0	0	0	0	519
10	0	0	0	0	522
11	0	0	0	0	514
12	0	0	0	0	525
13	0	0	0	0	516
14	0	0	0	0	515
15	0	0	0	0	521
0	0	0	0	0	514
1	0	0	0	0	527
2	0	0	0	0	518
3	0	0	0	0	514
4	0	0	0	0	518
5	0	0	0	0	502
6	0	0	0	0	508
7	0	0	0	0	500
8	0	0	0	0	497
9	0	0	0	0	504
10	0	0	0	0	498
11	0	0	0	0	511
12	0	0	0	0	507
13	0	0	0	0	508
14	0	0	0	0	515
15	0	0	0	0	509
0	0	0	0	0	520
1	0	0	0	0	512
2	0	0	0	0	510
3	0	0	0	0	517
4	0	0	0	0	511
5	0	0	0	0	522
6	0	0	0	0	511
7	0	0	0	0	508
8	0	0	0	0	511
9	0	0	0	0	504
10	0	0	0	0	514
11	0	0	0	0	502
12	0	0	0	0	501
13	0	0	0	0	505
14	0	0	0	0	497
15	0	0	0	0	512
0	0	0	0	0	501
1	0	0	0	0	501
2	0	0	0	0	507
3	0	0	0	0	502
4	0	0	0	0	514
5	0	0	0	0	507
6	0	0	0	0	507
7	0	0	0	0	511
8	0	0	0	0	508
9	0	0	0	0	521
10	0	0	0	0	512
11	0	0	0	0	511
12	0	0	0	0	515
13	0	0	0	0	508
14	0	0	0	0	518
15	0	0	0	0	510
0	0	0	0	0	508
1	0	0	0	0	514
2	0	0	0	0	510
3	0	0	0	0	524
4	0	0	0	0	518
5	0	0	0	0	512
6	0	0	0	0	514
7	0	0	0	0	505
8	0	0	0	0	514
9	0	0	0	0	506
10	0	0	0	0	505
11	0	0	0	0	510
12	0	0	0	0	502
13	0	0	0	0	480
14	0	0	0	0	480
15	0	0	0	0	606
0	0	0	0	0	922
1	0	0	0	0	767
2	0	0	0	0	492
3	0	0	0	0	421
4	0	0	0	0	418
5	0	0	0	0	425
6	0	0	0	0	427
7	0	0	0	0	444
8	0	0	0	0	441
9	0	0	0	0	448
10	0	0	0	0	455
11	0	0	0	0	453
12	0	0	0	0	467
13	0	0	0	0	459
14	0	0	0	0	460
15	0	0	0	0	462
0	0	0	0	0	457
1	0	0	0	0	470
2	0	0	0	0	463
3	0	0	0	0	467
4	0	0	0	0	473
5	0	0	0	0	471
6	0	0	0	0	485
7	0	0	0	0	480
8	0	0	0	0	485
9	0	0	0	0	492
10	0	0	0	0	491
11	0	0	0	0	504
12	0	0	0	0	495
13	0	0	0	0	496
14	0	0	0	0	499
15	0	0	0	0	496
0	0	0	0	0	506
1	0	0	0	0	497
2	0	0	0	0	498
3	0	0	0	0	502
4	0	0	0	0	497
5	0	0	0	0	509
6	0	0	0	0	504
7	0	0	0	0	507
8	0	0	0	0	512
9	0	0	0	0	507
10	0	0	0	0	519
11	0	0	0	0	510
12	0	0	0	0	512
13	0	0	0	0	513
14	0	0	0	0	512
15	0	0	0	0	523
0	0	0	0	0	515
1	0	0	0	0	517
2	0	0	0	0	520
3	0	0	0	0	515
4	0	0	0	0	527
5	0	0	0	0	521
6	0	0	0	0	521
7	0	0	0	0	522
8	0	0	0	0	517
9	0	0	0	0	527
10	0	0	0	0	519
11	0	0	0	0	520
12	0	0	0	0	523
13	0	0	0	0	518
14	0	0	0	0	528
15	0	0	0	0	518
0	0	0	0	0	520
1	0	0	0	0	520
2	0	0	0	0	513
3	0	0	0	0	526
4	0	0	0	0	518
5	0	0	0	0	519
6	0	0	0	0	520
7	0	0	0	0	514
8	0	0	0	0	523
9	0	0	0	0	513
10	0	0	0	0	515
11	0	0	0	0	516
12	0	0	0	0	510
13	0	0	0	0	520
14	0	0	0	0	511
15	0	0	0	0	512
0	0	0	0	0	512
1	0	0	0	0	507
2	0	0	0	0	517
3	0	0	0	0	509
4	0	0	0	0	511
5	0	0	0	0	512
6	0	0	0	0	508
7	0	0	0	0	518
8	0	0	0	0	512
9	0	0	0	0	517
10	0	0	0	0	521
11	0	0	0	0	512
12	0	0	0	0	520
13	0	0	0	0	511
14	0	0	0	0	510
15	0	0	0	0	511
0	0	0	0	0	505
1	0	0	0	0	517
2	0	0	0	0	508
3	0	0	0	0	484
4	0	0	0	0	478
5	0	0	0	0	539
6	0	0	0	0	812
7	0	0	0	0	889
8	0	0	0	0	546
9	0	0	0	0	440
10	0	0	0	0	419
11	0	0	0	0	430
12	0	0	0	0	432
13	0	0	0	0	440
14	0	0	0	0	447
15	0	0	0	0	450
0	0	0	0	0	469
1	0	0	0	0	465
2	0	0	0	0	472
3	0	0	0	0	479
4	0	0	0	0	476
5	0	0	0	0	487
6	0	0	0	0	480
7	0	0	0	0	487
8	0	0	0	0	491
9	0	0	0	0	488
10	0	0	0	0	498
11	0	0	0	0	492
12	0	0	0	0	497
13	0	0	0	0	498
14	0	0	0	0	494
15	0	0	0	0	507
0	0	0	0	0	503
1	0	0	0	0	506
2	0	0	0	0	508
3	0	0	0	0	504
4	0	0	0	0	518
5	0	0	0	0	513
6	0	0	0	0	513
7	0	0	0	0	513
8	0	0	0	0	508
9	0	0	0	0	519
10	0	0	0	0	511
11	0	0	0	0	513
12	0	0	0	0	514
13	0	0	0	0	509
14	0	0	0	0	520
15	0	0	0	0	511
0	0	0	0	0	511
1	0	0	0	0	512
2	0	0	0	0	504
3	0	0	0	0	512
4	0	0	0	0	504
5	0	0	0	0	507
6	0	0	0	0	508
7	0	0	0	0	499
8	0	0	0	0	511
9	0	0	0	0	503
10	0	0	0	0	508
11	0	0	0	0	511
12	0	0	0	0	506
13	0	0	0	0	515
14	0	0	0	0	514
15	0	0	0	0	521
0	0	0	0	0	522
1	0	0	0	0	518
2	0	0	0	0	529
3	0	0	0	0	521
4	0	0	0	0	523
5	0	0	0	0	519
6	0	0	0	0	513
7	0	0	0	0	522
8	0	0	0	0	511
9	0	0	0	0	512
10	0	0	0	0	509
11	0	0	0	0	502
12	0	0	0	0	512
13	0	0	0	0	503
14	0	0	0	0	503
15	0	0	0	0	504
0	0	0	0	0	496
1	0	0	0	0	510
2	0	0	0	0	505
3	0	0	0	0	504
4	0	0	0	0	502
5	0	0	0	0	493
6	0	0	0	0	504
7	0	0	0	0	492
8	0	0	0	0	498
9	0	0	0	0	497
10	0	0	0	0	488
11	0	0	0	0	473
12	0	0	0	0	464
13	0	0	0	0	549
14	0	0	0	0	800
15	0	0	0	0	800
0	0	0	0	0	507
1	0	0	0	0	418
2	0	0	0	0	415
3	0	0	0	0	419
4	0	0	0	0	419
5	0	0	0	0	441
6	0	0	0	0	441
7	0	0	0	0	449
8	0	0	0	0	457
9	0	0	0	0	455
10	0	0	0	0	471
11	0	0	0	0	464
12	0	0	0	0	473
13	0	0	0	0	476
14	0	0	0	0	475
15	0	0	0	0	495
0	0	0	0	0	489
1	0	0	0	0	498
2	0	0	0	0	499
3	0	0	0	0	495
4	0	0	0	0	509
5	0	0	0	0	504
6	0	0	0	0	510
7	0	0	0	0	515
8	0	0	0	0	515
9	0	0	0	0	533
10	0	0	0	0	528
11	0	0	0	0	532
12	0	0	0	0	530
13	0	0	0	0	521
14	0	0	0	0	528
15	0	0	0	0	514
0	0	0	0	0	515
1	0	0	0	0	513
2	0	0	0	0	502
3	0	0	0	0	513
4	0	0	0	0	503
5	0	0	0	0	510
6	0	0	0	0	508
7	0	0	0	0	499
8	0	0	0	0	514
9	0	0	0	0	507
10	0	0	0	0	508
11	0	0	0	0	509
12	0	0	0	0	502
13	0	0	0	0	512
14	0	0	0	0	502
15	0	0	0	0	503
0	0	0	0	0	503
1	0	0	0	0	496
2	0	0	0	0	509
3	0	0	0	0	500
4	0	0	0	0	505
5	0	0	0	0	504
6	0	0	0	0	497
7	0	0	0	0	512
8	0	0	0	0	503
9	0	0	0	0	508
10	0	0	0	0	508
11	0	0	0	0	503
12	0	0	0	0	519
13	0	0	0	0	512
14	0	0	0	0	520
15	0	0	0	0	525
0	0	0	0	0	522
1	0	0	0	0	532
2	0	0	0	0	518
3	0	0	0	0	521
4	0	0	0	0	515
5	0	0	0	0	508
6	0	0	0	0	520
7	0	0	0	0	511
8	0	0	0	0	517
9	0	0	0	0	503
10	0	0	0	0	482
11	0	0	0	0	547
12	0	0	0	0	707
13	0	0	0	0	919
14	0	0	0	0	584
15	0	0	0	0	442
0	0	0	0	0	440
1	0	0	0	0	435
2	0	0	0	0	445
3	0	0	0	0	451
4	0	0	0	0	449
5	0	0	0	0	472
6	0	0	0	0	467
7	0	0	0	0	476
8	0	0	0	0	479
9	0	0	0	0	476
10	0	0	0	0	496
11	0	0	0	0	488
12	0	0	0	0	497
13	0	0	0	0	496
14	0	0	0	0	491
15	0	0	0	0	510
0	0	0	0	0	500
1	0	0	0	0	510
2	0	0	0	0	512
3	0	0	0	0	505
4	0	0	0	0	521
5	0	0	0	0	513
6	0	0	0	0	520
7	0	0	0	0	520
8	0	0	0	0	513
9	0	0	0	0	528
10	0	0	0	0	515
11	0	0	0	0	519
12	0	0	0	0	512
13	0	0	0	0	502
14	0	0	0	0	512
15	0	0	0	0	504
0	0	0	0	0	508
1	0	0	0	0	507
2	0	0	0	0	500
3	0	0	0	0	516
4	0	0	0	0	505
5	0	0	0	0	512
6	0	0	0	0	510
7	0	0	0	0	503
8	0	0	0	0	518
9	0	0	0	0	508
10	0	0	0	0	516
11	0	0	0	0	514
12	0	0	0	0	504
13	0	0	0	0	518
14	0	0	0	0	507
15	0	0	0	0	513
0	0	0	0	0	511
1	0	0	0	0	506
2	0	0	0	0	522
3	0	0	0	0	512
4	0	0	0	0	515
5	0	0	0	0	517
6	0	0	0	0	509
7	0	0	0	0	529
8	0	0	0	0	526
9	0	0	0	0	526
10	0	0	0	0	523
11	0	0	0	0	508
12	0	0	0	0	518
13	0	0	0	0	508
14	0	0	0	0	511
15	0	0	0	0	512
0	0	0	0	0	505
1	0	0	0	0	508
2	0	0	0	0	478
3	0	0	0	0	527
4	0	0	0	0	677
5	0	0	0	0	926
6	0	0	0	0	612
7	0	0	0	0	441
8	0	0	0	0	424
9	0	0	0	0	428
10	0	0	0	0	424
11	0	0	0	0	449
12	0	0	0	0	446
13	0	0	0	0	459
14	0	0	0	0	465
15	0	0	0	0	464
0	0	0	0	0	482
1	0	0	0	0	474
2	0	0	0	0	483
3	0	0	0	0	486
4	0	0	0	0	481
5	0	0	0	0	496
6	0	0	0	0	489
7	0	0	0	0	501
8	0	0	0	0	500
9	0	0	0	0	497
10	0	0	0	0	517
11	0	0	0	0	507
12	0	0	0	0	516
13	0	0	0	0	519
14	0	0	0	0	509
15	0	0	0	0	526
0	0	0	0	0	518
1	0	0	0	0	521
2	0	0	0	0	516
3	0	0	0	0	504
4	0	0	0	0	513
5	0	0	0	0	500
6	0	0	0	0	504
7	0	0	0	0	503
8	0	0	0	0	496
9	0	0	0	0	516
10	0	0	0	0	505
11	0	0	0	0	512
12	0	0	0	0	512
13	0	0	0	0	506
14	0	0	0	0	523
15	0	0	0	0	513
0	0	0	0	0	515
1	0	0	0	0	516
2	0	0	0	0	507
3	0	0	0	0	519
4	0	0	0	0	508
5	0	0	0	0	516
6	0	0	0	0	513
7	0	0	0	0	506
8	0	0	0	0	522
9	0	0	0	0	512
10	0	0	0	0	517
11	0	0	0	0	515
12	0	0	0	0	508
13	0	0	0	0	533
14	0	0	0	0	523
15	0	0	0	0	523
0	0	0	0	0	515
1	0	0	0	0	504
2	0	0	0	0	513
3	0	0	0	0	502
4	0	0	0	0	509
5	0	0	0	0	506
6	0	0	0	0	500
7	0	0	0	0	493
8	0	0	0	0	485
9	0	0	0	0	572
10	0	0	0	0	793
11	0	0	0	0	842
12	0	0	0	0	526
13	0	0	0	0	424
14	0	0	0	0	426
15	0	0	0	0	430
0	0	0	0	0	429
1	0	0	0	0	454
2	0	0	0	0	449
3	0	0	0	0	466
4	0	0	0	0	471
5	0	0	0	0	464
6	0	0	0	0	484
7	0	0	0	0	481
8	0	0	0	0	488
9	0	0	0	0	492
10	0	0	0	0	487
11	0	0	0	0	505
12	0	0	0	0	496
13	0	0	0	0	507
14	0	0	0	0	505
15	0	0	0	0	502
0	0	0	0	0	519
1	0	0	0	0	511
2	0	0	0	0	519
3	0	0	0	0	519
4	0	0	0	0	514
5	0	0	0	0	529
6	0	0	0	0	517
7	0	0	0	0	520
8	0	0	0	0	512
9	0	0	0	0	502
10	0	0	0	0	511
11	0	0	0	0	499
12	0	0	0	0	506
13	0	0	0	0	506
14	0	0	0	0	496
15	0	0	0	0	515
0	0	0	0	0	507
1	0	0	0	0	512
2	0	0	0	0	512
3	0	0	0	0	507
4	0	0	0	0	521
5	0	0	0	0	510
6	0	0	0	0	516
7	0	0	0	0	517
8	0	0	0	0	504
9	0	0	0	0	523
10	0	0	0	0	510
11	0	0	0	0	514
12	0	0	0	0	513
13	0	0	0	0	504
14	0	0	0	0	518
15	0	0	0	0	508
0	0	0	0	0	514
1	0	0	0	0	514
2	0	0	0	0	510
3	0	0	0	0	529
4	0	0	0	0	524
5	0	0	0	0	526
6	0	0	0	0	521
7	0	0	0	0	509
8	0	0	0	0	518
9	0	0	0	0	508
10	0	0	0	0	515
11	0	0	0	0	515
12	0	0	0	0	507
13	0	0	0	0	515
14	0	0	0	0	485
15	0	0	0	0	519
0	0	0	0	0	654
1	0	0	0	0	934
2	0	0	0	0	696
3	0	0	0	0	461
4	0	0	0	0	428
5	0	0	0	0	434
6	0	0	0	0	430
7	0	0	0	0	454
8	0	0	0	0	451
9	0	0	0	0	465
10	0	0	0	0	471
11	0	0	0	0	468
12	0	0	0	0	490
13	0	0	0	0	484
14	0	0	0	0	495
15	0	0	0	0	494
0	0	0	0	0	492
1	0	0	0	0	509
2	0	0	0	0	500
3	0	0	0	0	508
4	0	0	0	0	511
5	0	0	0	0	507
6	0	0	0	0	522
7	0	0	0	0	511
8	0	0	0	0	515
9	0	0	0	0	517
10	0	0	0	0	511
11	0	0	0	0	524
12	0	0	0	0	516
13	0	0	0	0	516
14	0	0	0	0	512
15	0	0	0	0	495
0	0	0	0	0	505
1	0	0	0	0	487
2	0	0	0	0	495
3	0	0	0	0	495
4	0	0	0	0	486
5	0	0	0	0	512
6	0	0	0	0	500
7	0	0	0	0	505
8	0	0	0	0	509
9	0	0	0	0	502
10	0	0	0	0	516
11	0	0	0	0	505
12	0	0	0	0	511
13	0	0	0	0	508
14	0	0	0	0	501
15	0	0	0	0	515
0	0	0	0	0	502
1	0	0	0	0	511
2	0	0	0	0	507
3	0	0	0	0	497
4	0	0	0	0	512
5	0	0	0	0	504
6	0	0	0	0	514
7	0	0	0	0	512
8	0	0	0	0	504
9	0	0	0	0	520
10	0	0	0	0	512
11	0	0	0	0	515
12	0	0	0	0	515
13	0	0	0	0	515
14	0	0	0	0	528
15	0	0	0	0	514
0	0	0	0	0	517
1	0	0	0	0	510
2	0	0	0	0	499
3	0	0	0	0	513
4	0	0	0	0	503
5	0	0	0	0	510
6	0	0	0	0	507
7	0	0	0	0	480
8	0	0	0	0	493
9	0	0	0	0	556
10	0	0	0	0	777
11	0	0	0	0	897
12	0	0	0	0	521
13	0	0	0	0	433
14	0	0	0	0	416
15	0	0	0	0	433
0	0	0	0	0	439
1	0	0	0	0	440
2	0	0	0	0	463
3	0	0	0	0	460
4	0	0	0	0	473
5	0	0	0	0	478
6	0	0	0	0	474
7	0	0	0	0	492
8	0	0	0	0	485
9	0	0	0	0	494
10	0	0	0	0	496
11	0	0	0	0	489
12	0	0	0	0	508
13	0	0	0	0	499
14	0	0	0	0	508
15	0	0	0	0	507
0	0	0	0	0	499
1	0	0	0	0	522
2	0	0	0	0	512
3	0	0	0	0	518
4	0	0	0	0	517
5	0	0	0	0	509
6	0	0	0	0	523
7	0	0	0	0	511
8	0	0	0	0	513
9	0	0	0	0	505
10	0	0	0	0	493
11	0	0	0	0	505
12	0	0	0	0	494
13	0	0	0	0	502
14	0	0	0	0	503
15	0	0	0	0	496
0	0	0	0	0	511
1	0	0	0	0	505
2	0	0	0	0	511
3	0	0	0	0	510
4	0	0	0	0	502
5	0	0	0	0	518
6	0	0	0	0	509
7	0	0	0	0	515
8	0	0	0	0	513
9	0	0	0	0	504
10	0	0	0	0	517
11	0	0	0	0	506
12	0	0	0	0	512
13	0	0	0	0	511
14	0	0	0	0	502
15	0	0	0	0	515
0	0	0	0	0	507
1	0	0	0	0	512
2	0	0	0	0	512
3	0	0	0	0	504
4	0	0	0	0	519
5	0	0	0	0	509
6	0	0	0	0	514
7	0	0	0	0	511
8	0	0	0	0	502
9	0	0	0	0	516
10	0	0	0	0	507
11	0	0	0	0	512
12	0	0	0	0	513
13	0	0	0	0	504
14	0	0	0	0	517
15	0	0	0	0	505
0	0	0	0	0	514
1	0	0	0	0	513
2	0	0	0	0	502
3	0	0	0	0	519
4	0	0	0	0	511
5	0	0	0	0	518
6	0	0	0	0	521
7	0	0	0	0	505
8	0	0	0	0	518
9	0	0	0	0	505
10	0	0	0	0	506
11	0	0	0	0	504
12	0	0	0	0	496
13	0	0	0	0	513
14	0	0	0	0	502
15	0	0	0	0	493
0	0	0	0	0	472
1	0	0	0	0	512
2	0	0	0	0	728
3	0	0	0	0	979
4	0	0	0	0	605
5	0	0	0	0	428
6	0	0	0	0	404
7	0	0	0	0	427
8	0	0	0	0	425
9	0	0	0	0	439
10	0	0	0	0	446
11	0	0	0	0	448
12	0	0	0	0	470
13	0	0	0	0	464
14	0	0	0	0	476
15	0	0	0	0	483
0	0	0	0	0	478
1	0	0	0	0	497
2	0	0	0	0	491
3	0	0	0	0	497
4	0	0	0	0	498
5	0	0	0	0	492
6	0	0	0	0	509
7	0	0	0	0	499
8	0	0	0	0	505
9	0	0	0	0	507
10	0	0	0	0	504
11	0	0	0	0	520
12	0	0	0	0	512
13	0	0	0	0	519
14	0	0	0	0	519
15	0	0	0	0	510
0	0	0	0	0	521
1	0	0	0	0	506
2	0	0	0	0	505
3	0	0	0	0	502
4	0	0	0	0	492
5	0	0	0	0	507
6	0	0	0	0	499
7	0	0	0	0	505
8	0	0	0	0	505
9	0	0	0	0	499
10	0	0	0	0	515
11	0	0	0	0	507
12	0	0	0	0	514
13	0	0	0	0	516
14	0	0	0	0	506
15	0	0	0	0	521
0	0	0	0	0	512
1	0	0	0	0	517
2	0	0	0	0	515
3	0	0	0	0	507
4	0	0	0	0	519
5	0	0	0	0	511
6	0	0	0	0	515
7	0	0	0	0	514
8	0	0	0	0	506
9	0	0	0	0	522
10	0	0	0	0	512
11	0	0	0	0	516
12	0	0	0	0	518
13	0	0	0	0	511
14	0	0	0	0	523
15	0	0	0	0	513
0	0	0	0	0	517
1	0	0	0	0	515
2	0	0	0	0	505
3	0	0	0	0	519
4	0	0	0	0	508
5	0	0	0	0	512
6	0	0	0	0	512
7	0	0	0	0	503
8	0	0	0	0	519
9	0	0	0	0	510
10	0	0	0	0	512
11	0	0	0	0	512
12	0	0	0	0	505
13	0	0	0	0	519
14	0	0	0	0	510
15	0	0	0	0	514
0	0	0	0	0	515
1	0	0	0	0	507
2	0	0	0	0	521
3	0	0	0	0	512
4	0	0	0	0	516
5	0	0	0	0	514
6	0	0	0	0	509
7	0	0	0	0	522
8	0	0	0	0	512
9	0	0	0	0	515
10	0	0	0	0	515
11	0	0	0	0	507
12	0	0	0	0	519
13	0	0	0	0	512
14	0	0	0	0	518
15	0	0	0	0	519
0	0	0	0	0	518
1	0	0	0	0	529
2	0	0	0	0	517
3	0	0	0	0	520
4	0	0	0	0	516
5	0	0	0	0	506
6	0	0	0	0	518
7	0	0	0	0	508
8	0	0	0	0	513
9	0	0	0	0	504
10	0	0	0	0	471
11	0	0	0	0	521
12	0	0	0	0	717
13	0	0	0	0	1010
14	0	0	0	0	659
15	0	0	0	0	432
0	0	0	0	0	423
1	0	0	0	0	417
2	0	0	0	0	425
3	0	0	0	0	434
4	0	0	0	0	435
5	0	0	0	0	456
6	0	0	0	0	452
7	0	0	0	0	463
8	0	0	0	0	471
9	0	0	0	0	468
10	0	0	0	0	485
11	0	0	0	0	480
12	0	0	0	0	486
13	0	0	0	0	488
14	0	0	0	0	485
15	0	0	0	0	503
0	0	0	0	0	494
1	0	0	0	0	499
2	0	0	0	0	500
3	0	0	0	0	493
4	0	0	0	0	511
5	0	0	0	0	505
6	0	0	0	0	511
7	0	0	0	0	512
8	0	0	0	0	504
9	0	0	0	0	517
10	0	0	0	0	508
11	0	0	0	0	509
12	0	0	0	0	508
13	0	0	0	0	496
14	0	0	0	0	508
15	0	0	0	0	497
0	0	0	0	0	499
1	0	0	0	0	501
2	0	0	0	0	494
3	0	0	0	0	511
4	0	0	0	0	502
5	0	0	0	0	506
6	0	0	0	0	509
7	0	0	0	0	503
8	0	0	0	0	518
9	0	0	0	0	510
10	0	0	0	0	514
11	0	0	0	0	516
12	0	0	0	0	508
13	0	0	0	0	521
14	0	0	0	0	515
15	0	0	0	0	518
0	0	0	0	0	521
1	0	0	0	0	515
2	0	0	0	0	527
3	0	0	0	0	518
4	0	0	0	0	520
5	0	0	0	0	521
6	0	0	0	0	514
7	0	0	0	0	527
8	0	0	0	0	517
9	0	0	0	0	520
10	0	0	0	0	523
11	0	0	0	0	516
12	0	0	0	0	529
13	0	0	0	0	518
14	0	0	0	0	519
15	0	0	0	0	519
0	0	0	0	0	512
1	0	0	0	0	523
2	0	0	0	0	513
3	0	0	0	0	515
4	0	0	0	0	518
5	0	0	0	0	509
6	0	0	0	0	523
7	0	0	0	0	513
8	0	0	0	0	514
9	0	0	0	0	514
10	0	0	0	0	506
11	0	0	0	0	518
12	0	0	0	0	510
13	0	0	0	0	511
14	0	0	0	0	513
15	0	0	0	0	509
0	0	0	0	0	519
1	0	0	0	0	511
2	0	0	0	0	512
3	0	0	0	0	512
4	0	0	0	0	505
5	0	0	0	0	517
6	0	0	0	0	509
7	0	0	0	0	510
8	0	0	0	0	511
9	0	0	0	0	504
10	0	0	0	0	517
11	0	0	0	0	510
12	0	0	0	0	514
13	0	0	0	0	508
14	0	0	0	0	497
15	0	0	0	0	508
0	0	0	0	0	494
1	0	0	0	0	496
2	0	0	0	0	498
3	0	0	0	0	492
4	0	0	0	0	504
5	0	0	0	0	470
6	0	0	0	0	469
7	0	0	0	0	567
8	0	0	0	0	847
9	0	0	0	0	897
10	0	0	0	0	502
11	0	0	0	0	417
12	0	0	0	0	413
13	0	0	0	0	409
14	0	0	0	0	431
15	0	0	0	0	432
0	0	0	0	0	442
1	0	0	0	0	451
2	0	0	0	0	451
3	0	0	0	0	469
4	0	0	0	0	466
5	0	0	0	0	473
6	0	0	0	0	479
7	0	0	0	0	473
8	0	0	0	0	488
9	0	0	0	0	481
10	0	0	0	0	484
11	0	0	0	0	489
12	0	0	0	0	483
13	0	0	0	0	497
14	0	0	0	0	490
15	0	0	0	0	495
0	0	0	0	0	502
1	0	0	0	0	500
2	0	0	0	0	519
3	0	0	0	0	512
4	0	0	0	0	516
5	0	0	0	0	523
6	0	0	0	0	517
7	0	0	0	0	528
8	0	0	0	0	516
9	0	0	0	0	517
10	0	0	0	0	518
11	0	0	0	0	508
12	0	0	0	0	519
13	0	0	0	0	512
14	0	0	0	0	512
15	0	0	0	0	514
0	0	0	0	0	507
1	0	0	0	0	521
2	0	0	0	0	512
3	0	0	0	0	513
4	0	0	0	0	515
5	0	0	0	0	508
6	0	0	0	0	519
7	0	0	0	0	512
8	0	0	0	0	513
9	0	0	0	0	513
10	0	0	0	0	508
11	0	0	0	0	519
12	0	0	0	0	511
13	0	0	0	0	512
14	0	0	0	0	515
15	0	0	0	0	507
0	0	0	0	0	519
1	0	0	0	0	512
2	0	0	0	0	513
3	0	0	0	0	517
4	0	0	0	0	510
5	0	0	0	0	523
6	0	0	0	0	513
7	0	0	0	0	514
8	0	0	0	0	516
9	0	0	0	0	509
10	0	0	0	0	521
11	0	0	0	0	511
12	0	0	0	0	514
13	0	0	0	0	517
14	0	0	0	0	510
15	0	0	0	0	523
0	0	0	0	0	512
1	0	0	0	0	513
2	0	0	0	0	518
3	0	0	0	0	509
4	0	0	0	0	523
5	0	0	0	0	515
6	0	0	0	0	514
7	0	0	0	0	517
8	0	0	0	0	510
9	0	0	0	0	520
10	0	0	0	0	511
11	0	0	0	0	512
12	0	0	0	0	517
13	0	0	0	0	510
14	0	0	0	0	522
15	0	0	0	0	511
0	0	0	0	0	510
1	0	0	0	0	515
2	0	0	0	0	508
3	0	0	0	0	519
4	0	0	0	0	511
5	0	0	0	0	513
6	0	0	0	0	522
7	0	0	0	0	518
8	0	0	0	0	524
9	0	0	0	0	514
10	0	0	0	0	512
11	0	0	0	0	506
12	0	0	0	0	493
13	0	0	0	0	503
14	0	0	0	0	494
15	0	0	0	0	492
0	0	0	0	0	463
1	0	0	0	0	469
2	0	0	0	0	606
3	0	0	0	0	907
4	0	0	0	0	777
5	0	0	0	0	480
6	0	0	0	0	412
7	0	0	0	0	421
8	0	0	0	0	419
9	0	0	0	0	428
10	0	0	0	0	441
11	0	0	0	0	443
12	0	0	0	0	464
13	0	0	0	0	462
14	0	0	0	0	468
15	0	0	0	0	476
0	0	0	0	0	470
1	0	0	0	0	483
2	0	0	0	0	472
3	0	0	0	0	472
4	0	0	0	0	478
5	0	0	0	0	475
6	0	0	0	0	487
7	0	0	0	0	483
8	0	0	0	0	484
9	0	0	0	0	491
10	0	0	0	0	488
11	0	0	0	0	504
12	0	0	0	0	500
13	0	0	0	0	505
14	0	0	0	0	513
15	0	0	0	0	512
0	0	0	0	0	527
1	0	0	0	0	523
2	0	0	0	0	524
3	0	0	0	0	530
4	0	0	0	0	519
5	0	0	0	0	525
6	0	0	0	0	518
7	0	0	0	0	516
8	0	0	0	0	524
9	0	0	0	0	516
10	0	0	0	0	529
11	0	0	0	0	519
12	0	0	0	0	518
13	0	0	0	0	521
14	0	0	0	0	515
15	0	0	0	0	526
0	0	0	0	0	517
1	0	0	0	0	516
2	0	0	0	0	519
3	0	0	0	0	512
4	0	0	0	0	524
5	0	0	0	0	516
6	0	0	0	0	513
7	0	0	0	0	519
8	0	0	0	0	511
9	0	0	0	0	520
10	0	0	0	0	509
11	0	0	0	0	503
12	0	0	0	0	506
13	0	0	0	0	496
14	0	0	0	0	503
15	0	0	0	0	496
0	0	0	0	0	493
1	0	0	0	0	497
2	0	0	0	0	491
3	0	0	0	0	501
4	0	0	0	0	487
5	0	0	0	0	482
6	0	0	0	0	483
7	0	0	0	0	476
8	0	0	0	0	489
9	0	0	0	0	484
10	0	0	0	0	485
11	0	0	0	0	493
12	0	0	0	0	489
13	0	0	0	0	502
14	0	0	0	0	495
15	0	0	0	0	498
0	0	0	0	0	504
1	0	0	0	0	501
2	0	0	0	0	512
3	0	0	0	0	508
4	0	0	0	0	506
5	0	0	0	0	512
6	0	0	0	0	508
7	0	0	0	0	520
8	0	0	0	0	513
9	0	0	0	0	512
10	0	0	0	0	514
11	0	0	0	0	510
12	0	0	0	0	522
13	0	0	0	0	520
14	0	0	0	0	520
15	0	0	0	0	521
0	0	0	0	0	516
1	0	0	0	0	523
2	0	0	0	0	513
3	0	0	0	0	512
4	0	0	0	0	515
5	0	0	0	0	510
6	0	0	0	0	516
7	0	0	0	0	475
8	0	0	0	0	491
9	0	0	0	0	651
10	0	0	0	0	969
11	0	0	0	0	734
12	0	0	0	0	480
13	0	0	0	0	425
14	0	0	0	0	428
15	0	0	0	0	428
0	0	0	0	0	446
1	0	0	0	0	446
2	0	0	0	0	452
3	0	0	0	0	466
4	0	0	0	0	465
5	0	0	0	0	481
6	0	0	0	0	477
7	0	0	0	0	478
8	0	0	0	0	485
9	0	0	0	0	484
10	0	0	0	0	495
11	0	0	0	0	490
12	0	0	0	0	491
13	0	0	0	0	498
14	0	0	0	0	493
15	0	0	0	0	505
0	0	0	0	0	498
1	0	0	0	0	498
2	0	0	0	0	507
3	0	0	0	0	504
4	0	0	0	0	518
5	0	0	0	0	511
6	0	0	0	0	513
7	0	0	0	0	521
8	0	0	0	0	519
9	0	0	0	0	531
10	0	0	0	0	524
11	0	0	0	0	521
12	0	0	0	0	527
13	0	0	0	0	519
14	0	0	0	0	528
15	0	0	0	0	521
0	0	0	0	0	516
1	0	0	0	0	519
2	0	0	0	0	514
3	0	0	0	0	522
4	0	0	0	0	515
5	0	0	0	0	512
6	0	0	0	0	518
7	0	0	0	0	511
8	0	0	0	0	519
9	0	0	0	0	511
10	0	0	0	0	509
11	0	0	0	0	515
12	0	0	0	0	509
13	0	0	0	0	519
14	0	0	0	0	511
15	0	0	0	0	508
0	0	0	0	0	512
1	0	0	0	0	504
2	0	0	0	0	513
3	0	0	0	0	508
4	0	0	0	0	503
5	0	0	0	0	508
6	0	0	0	0	504
7	0	0	0	0	512
8	0	0	0	0	504
9	0	0	0	0	503
10	0	0	0	0	507
11	0	0	0	0	502
12	0	0	0	0	512
13	0	0	0	0	505
14	0	0	0	0	504
15	0	0	0	0	508
0	0	0	0	0	503
1	0	0	0	0	512
2	0	0	0	0	505
3	0	0	0	0	503
4	0	0	0	0	509
5	0	0	0	0	504
6	0	0	0	0	511
7	0	0	0	0	505
8	0	0	0	0	503
9	0	0	0	0	510
10	0	0	0	0	502
11	0	0	0	0	513
12	0	0	0	0	506
13	0	0	0	0	502
14	0	0	0	0	509
15	0	0	0	0	505
0	0	0	0	0	518
1	0	0	0	0	511
2	0	0	0	0	504
3	0	0	0	0	508
4	0	0	0	0	499
5	0	0	0	0	504
6	0	0	0	0	498
7	0	0	0	0	497
8	0	0	0	0	503
9	0	0	0	0	482
10	0	0	0	0	469
11	0	0	0	0	508
12	0	0	0	0	710
13	0	0	0	0	924
14	0	0	0	0	581
15	0	0	0	0	448
0	0	0	0	0	416
1	0	0	0	0	415
2	0	0	0	0	427
3	0	0	0	0	430
4	0	0	0	0	449
5	0	0	0	0	450
6	0	0	0	0	454
7	0	0	0	0	465
8	0	0	0	0	463
9	0	0	0	0	477
10	0	0	0	0	476
11	0	0	0	0	475
12	0	0	0	0	485
13	0	0	0	0	481
14	0	0	0	0	494
15	0	0	0	0	489
0	0	0	0	0	490
1	0	0	0	0	499
2	0	0	0	0	493
3	0	0	0	0	501
4	0	0	0	0	496
5	0	0	0	0	496
6	0	0	0	0	505
7	0	0	0	0	502
8	0	0	0	0	514
9	0	0	0	0	510
10	0	0	0	0	511
11	0	0	0	0	519
12	0	0	0	0	515
13	0	0	0	0	520
14	0	0	0	0	513
15	0	0	0	0	508
0	0	0	0	0	515
1	0	0	0	0	509
2	0	0	0	0	515
3	0	0	0	0	509
4	0	0	0	0	506
5	0	0	0	0	514
6	0	0	0	0	508
7	0	0	0	0	516
8	0	0	0	0	511
9	0	0	0	0	507
10	0	0	0	0	514
11	0	0	0	0	508
12	0	0	0	0	518
13	0	0	0	0	511
14	0	0	0	0	505
15	0	0	0	0	513
0	0	0	0	0	503
1	0	0	0	0	512
2	0	0	0	0	505
3	0	0	0	0	502
4	0	0	0	0	511
5	0	0	0	0	504
6	0	0	0	0	518
7	0	0	0	0	510
8	0	0	0	0	505
9	0	0	0	0	518
10	0	0	0	0	510
11	0	0	0	0	519
12	0	0	0	0	513
13	0	0	0	0	510
14	0	0	0	0	519
15	0	0	0	0	511
0	0	0	0	0	521
1	0	0	0	0	520
2	0	0	0	0	516
3	0	0	0	0	530
4	0	0	0	0	524
5	0	0	0	0	532
6	0	0	0	0	534
7	0	0	0	0	523
8	0	0	0	0	528
9	0	0	0	0	516
10	0	0	0	0	520
11	0	0	0	0	507
12	0	0	0	0	500
13	0	0	0	0	511
14	0	0	0	0	502
15	0	0	0	0	494
0	0	0	0	0	471
1	0	0	0	0	513
2	0	0	0	0	713
3	0	0	0	0	902
4	0	0	0	0	577
5	0	0	0	0	433
6	0	0	0	0	411
7	0	0	0	0	425
8	0	0	0	0	425
9	0	0	0	0	443
10	0	0	0	0	445
11	0	0	0	0	452
12	0	0	0	0	471
13	0	0	0	0	468
14	0	0	0	0	484
15	0	0	0	0	483
0	0	0	0	0	479
1	0	0	0	0	494
2	0	0	0	0	488
3	0	0	0	0	499
4	0	0	0	0	495
5	0	0	0	0	490
6	0	0	0	0	503
7	0	0	0	0	497
8	0	0	0	0	507
9	0	0	0	0	503
10	0	0	0	0	501
11	0	0	0	0	515
12	0	0	0	0	509
13	0	0	0	0	521
14	0	0	0	0	517
15	0	0	0	0	513
0	0	0	0	0	523
1	0	0	0	0	514
2	0	0	0	0	520
3	0	0	0	0	511
4	0	0	0	0	503
5	0	0	0	0	512
6	0	0	0	0	504
7	0	0	0	0	514
8	0	0	0	0	508
9	0	0	0	0	499
10	0	0	0	0	513
11	0	0	0	0	504
12	0	0	0	0	514
13	0	0	0	0	509
14	0	0	0	0	500
15	0	0	0	0	510
0	0	0	0	0	500
1	0	0	0	0	511
2	0	0	0	0	506
3	0	0	0	0	499
4	0	0	0	0	508
5	0	0	0	0	501
6	0	0	0	0	510
7	0	0	0	0	504
8	0	0	0	0	498
9	0	0	0	0	511
10	0	0	0	0	504
11	0	0	0	0	515
12	0	0	0	0	516
13	0	0	0	0	515
14	0	0	0	0	531
15	0	0	0	0	523
0	0	0	0	0	531
1	0	0	0	0	527
2	0	0	0	0	522
3	0	0	0	0	539
4	0	0	0	0	519
5	0	0	0	0	522
6	0	0	0	0	514
7	0	0	0	0	501
8	0	0	0	0	511
9	0	0	0	0	504
10	0	0	0	0	512
11	0	0	0	0	505
12	0	0	0	0	492
13	0	0	0	0	478
14	0	0	0	0	495
15	0	0	0	0	636
0	0	0	0	0	930
1	0	0	0	0	652
2	0	0	0	0	458
3	0	0	0	0	417
4	0	0	0	0	433
5	0	0	0	0	433
6	0	0	0	0	433
7	0	0	0	0	454
8	0	0	0	0	451
9	0	0	0	0	467
10	0	0	0	0	465
11	0	0	0	0	462
12	0	0	0	0	480
13	0	0	0	0	473
14	0	0	0	0	486
15	0	0	0	0	485
0	0	0	0	0	480
1	0	0	0	0	496
2	0	0	0	0	489
3	0	0	0	0	500
4	0	0	0	0	499
5	0	0	0	0	492
6	0	0	0	0	508
7	0	0	0	0	502
8	0	0	0	0	512
9	0	0	0	0	511
10	0	0	0	0	507
11	0	0	0	0	523
12	0	0	0	0	514
13	0	0	0	0	522
14	0	0	0	0	515
15	0	0	0	0	508
0	0	0	0	0	519
1	0	0	0	0	511
2	0	0	0	0	516
3	0	0	0	0	513
4	0	0	0	0	508
5	0	0	0	0	524
6	0	0	0	0	515
7	0	0	0	0	522
8	0	0	0	0	517
9	0	0	0	0	511
10	0	0	0	0	524
11	0	0	0	0	512
12	0	0	0	0	519
13	0	0	0	0	515
14	0	0	0	0	509
15	0	0	0	0	521
0	0	0	0	0	512
1	0	0	0	0	520
2	0	0	0	0	515
3	0	0	0	0	506
4	0	0	0	0	520
5	0	0	0	0	509
6	0	0	0	0	516
7	0	0	0	0	511
8	0	0	0	0	502
9	0	0	0	0	520
10	0	0	0	0	512
11	0	0	0	0	527
12	0	0	0	0	525
13	0	0	0	0	511
14	0	0	0	0	522
15	0	0	0	0	510
0	0	0	0	0	511
1	0	0	0	0	511
2	0	0	0	0	504
3	0	0	0	0	518
4	0	0	0	0	504
5	0	0	0	0	488
6	0	0	0	0	481
7	0	0	0	0	542
8	0	0	0	0	762
9	0	0	0	0	860
10	0	0	0	0	537
11	0	0	0	0	433
12	0	0	0	0	418
13	0	0	0	0	437
14	0	0	0	0	434
15	0	0	0	0	449
0	0	0	0	0	453
1	0	0	0	0	452
2	0	0	0	0	476
3	0	0	0	0	469
4	0	0	0	0	479
5	0	0	0	0	480
6	0	0	0	0	477
7	0	0	0	0	496
8	0	0	0	0	488
9	0	0	0	0	497
10	0	0	0	0	499
11	0	0	0	0	493
12	0	0	0	0	511
13	0	0	0	0	501
14	0	0	0	0	507
15	0	0	0	0	509
0	0	0	0	0	503
1	0	0	0	0	520
2	0	0	0	0	514
3	0	0	0	0	516
4	0	0	0	0	519
5	0	0	0	0	510
6	0	0	0	0	520
7	0	0	0	0	506
8	0	0	0	0	508
9	0	0	0	0	507
10	0	0	0	0	498
11	0	0	0	0	510
12	0	0	0	0	503
13	0	0	0	0	508
14	0	0	0	0	511
15	0	0	0	0	501
0	0	0	0	0	519
1	0	0	0	0	508
2	0	0	0	0	510
3	0	0	0	0	511
4	0	0	0	0	504
5	0	0	0	0	516
6	0	0	0	0	505
7	0	0	0	0	512
8	0	0	0	0	511
9	0	0	0	0	506
10	0	0	0	0	521
11	0	0	0	0	509
12	0	0	0	0	512
13	0	0	0	0	512
14	0	0	0	0	507
15	0	0	0	0	518
0	0	0	0	0	512
1	0	0	0	0	514
2	0	0	0	0	518
3	0	0	0	0	516
4	0	0	0	0	527
5	0	0	0	0	511
6	0	0	0	0	510
7	0	0	0	0	509
8	0	0	0	0	497
9	0	0	0	0	512
10	0	0	0	0	505
11	0	0	0	0	505
12	0	0	0	0	505
13	0	0	0	0	472
14	0	0	0	0	505
15	0	0	0	0	604
0	0	0	0	0	881
1	0	0	0	0	750
2	0	0	0	0	473
3	0	0	0	0	435
4	0	0	0	0	426
5	0	0	0	0	435
6	0	0	0	0	446
7	0	0	0	0	442
8	0	0	0	0	465
9	0	0	0	0	464
10	0	0	0	0	466
11	0	0	0	0	474
12	0	0	0	0	468
13	0	0	0	0	490
14	0	0	0	0	483
15	0	0	0	0	487
0	0	0	0	0	496
1	0	0	0	0	491
2	0	0	0	0	511
3	0	0	0	0	501
4	0	0	0	0	502
5	0	0	0	0	509
6	0	0	0	0	504
7	0	0	0	0	520
8	0	0	0	0	512
9	0	0	0	0	513
10	0	0	0	0	518
11	0	0	0	0	511
12	0	0	0	0	526
13	0	0	0	0	515
14	0	0	0	0	511
15	0	0	0	0	512
0	0	0	0	0	499
1	0	0	0	0	512
2	0	0	0	0	499
3	0	0	0	0	502
4	0	0	0	0	510
5	0	0	0	0	502
6	0	0	0	0	521
7	0	0	0	0	508
8	0	0	0	0	509
9	0	0	0	0	514
10	0	0	0	0	505
11	0	0	0	0	522
12	0	0	0	0	510
13	0	0	0	0	509
14	0	0	0	0	515
15	0	0	0	0	506
0	0	0	0	0	524
1	0	0	0	0	508
2	0	0	0	0	508
3	0	0	0	0	512
4	0	0	0	0	504
5	0	0	0	0	518
6	0	0	0	0	508
7	0	0	0	0	508
8	0	0	0	0	513
9	0	0	0	0	508
10	0	0	0	0	529
11	0	0	0	0	519
12	0	0	0	0	514
13	0	0	0	0	517
14	0	0	0	0	502
15	0	0	0	0	511
0	0	0	0	0	499
1	0	0	0	0	500
2	0	0	0	0	508
3	0	0	0	0	497
4	0	0	0	0	506
5	0	0	0	0	475
6	0	0	0	0	522
7	0	0	0	0	684
8	0	0	0	0	932
9	0	0	0	0	605
10	0	0	0	0	435
11	0	0	0	0	412
12	0	0	0	0	429
13	0	0	0	0	429
14	0	0	0	0	453
15	0	0	0	0	448
0	0	0	0	0	452
1	0	0	0	0	467
2	0	0	0	0	463
3	0	0	0	0	484
4	0	0	0	0	481
5	0	0	0	0	479
6	0	0	0	0	491
7	0	0	0	0	484
8	0	0	0	0	504
9	0	0	0	0	495
10	0	0	0	0	496
11	0	0	0	0	509
12	0	0	0	0	503
13	0	0	0	0	520
14	0	0	0	0	509
15	0	0	0	0	511
0	0	0	0	0	523
1	0	0	0	0	515
2	0	0	0	0	531
3	0	0	0	0	523
4	0	0	0	0	516
5	0	0	0	0	521
6	0	0	0	0	509
7	0	0	0	0	519
8	0	0	0	0	504
9	0	0	0	0	501
10	0	0	0	0	510
11	0	0	0	0	500
12	0	0	0	0	520
13	0	0	0	0	511
14	0	0	0	0	508
15	0	0	0	0	519
0	0	0	0	0	508
1	0	0	0	0	524
2	0	0	0	0	511
3	0	0	0	0	504
4	0	0	0	0	518
5	0	0	0	0	509
6	0	0	0	0	522
7	0	0	0	0	509
8	0	0	0	0	504
9	0	0	0	0	512
10	0	0	0	0	504
11	0	0	0	0	517
12	0	0	0	0	507
13	0	0	0	0	502
14	0	0	0	0	512
15	0	0	0	0	504
0	0	0	0	0	518
1	0	0	0	0	510
2	0	0	0	0	506
3	0	0	0	0	518
4	0	0	0	0	516
5	0	0	0	0	531
6	0	0	0	0	514
7	0	0	0	0	509
8	0	0	0	0	515
9	0	0	0	0	503
10	0	0	0	0	518
11	0	0	0	0	508
12	0	0	0	0	503
13	0	0	0	0	515
14	0	0	0	0	489
15	0	0	0	0	493
0	0	0	0	0	536
1	0	0	0	0	717
2	0	0	0	0	946
3	0	0	0	0	566
4	0	0	0	0	447
5	0	0	0	0	422
6	0	0	0	0	423
7	0	0	0	0	442
8	0	0	0	0	440
9	0	0	0	0	464
10	0	0	0	0	463
11	0	0	0	0	465
12	0	0	0	0	482
13	0	0	0	0	476
14	0	0	0	0	499
15	0	0	0	0	490
0	0	0	0	0	485
1	0	0	0	0	504
2	0	0	0	0	495
3	0	0	0	0	512
4	0	0	0	0	502
5	0	0	0	0	500
6	0	0	0	0	514
7	0	0	0	0	505
8	0	0	0	0	521
9	0	0	0	0	514
10	0	0	0	0	508
11	0	0	0	0	523
12	0	0	0	0	514
13	0	0	0	0	528
14	0	0	0	0	519
15	0	0	0	0	507
0	0	0	0	0	516
1	0	0	0	0	503
2	0	0	0	0	512
3	0	0	0	0	499
4	0	0	0	0	495
5	0	0	0	0	511
6	0	0	0	0	502
7	0	0	0	0	517
8	0	0	0	0	509
9	0	0	0	0	502
10	0	0	0	0	518
11	0	0	0	0	508
12	0	0	0	0	525
13	0	0	0	0	512
14	0	0	0	0	505
15	0	0	0	0	518
0	0	0	0	0	508
1	0	0	0	0	521
2	0	0	0	0	512
3	0	0	0	0	503
4	0	0	0	0	518
5	0	0	0	0	508
6	0	0	0	0	521
7	0	0	0	0	511
8	0	0	0	0	504
9	0	0	0	0	517
10	0	0	0	0	507
11	0	0	0	0	518
12	0	0	0	0	510
13	0	0	0	0	502
14	0	0	0	0	516
15	0	0	0	0	507
0	0	0	0	0	519
1	0	0	0	0	511
2	0	0	0	0	504
3	0	0	0	0	519
4	0	0	0	0	509
5	0	0	0	0	521
6	0	0	0	0	512
7	0	0	0	0	504
8	0	0	0	0	517
9	0	0	0	0	510
10	0	0	0	0	524
11	0	0	0	0	522
12	0	0	0	0	512
13	0	0	0	0	519
14	0	0	0	0	508
15	0	0	0	0	516
0	0	0	0	0	507
1	0	0	0	0	497
2	0	0	0	0	512
3	0	0	0	0	502
4	0	0	0	0	515
5	0	0	0	0	482
6	0	0	0	0	471
7	0	0	0	0	569
8	0	0	0	0	820
9	0	0	0	0	906
10	0	0	0	0	504
11	0	0	0	0	412
12	0	0	0	0	424
13	0	0	0	0	419
14	0	0	0	0	438
15	0	0	0	0	440
0	0	0	0	0	438
1	0	0	0	0	463
2	0	0	0	0	460
3	0	0	0	0	476
4	0	0	0	0	475
5	0	0	0	0	473
6	0	0	0	0	490
7	0	0	0	0	483
8	0	0	0	0	494
9	0	0	0	0	490
10	0	0	0	0	483
11	0	0	0	0	501
12	0	0	0	0	492
13	0	0	0	0	508
14	0	0	0	0	502
15	0	0	0	0	498
0	0	0	0	0	516
1	0	0	0	0	508
2	0	0	0	0	521
3	0	0	0	0	517
4	0	0	0	0	510
5	0	0	0	0	526
6	0	0	0	0	516
7	0	0	0	0	526
8	0	0	0	0	515
9	0	0	0	0	504
10	0	0	0	0	518
11	0	0	0	0	505
12	0	0	0	0	516
13	0	0	0	0	512
14	0	0	0	0	505
15	0	0	0	0	521
0	0	0	0	0	512
1	0	0	0	0	523
2	0	0	0	0	516
3	0	0	0	0	510
4	0	0	0	0	525
5	0	0	0	0	513
6	0	0	0	0	524
7	0	0	0	0	519
8	0	0	0	0	510
9	0	0	0	0	527
10	0	0	0	0	517
11	0	0	0	0	526
12	0	0	0	0	519
13	0	0	0	0	512
14	0	0	0	0	531
15	0	0	0	0	519
0	0	0	0	0	528
1	0	0	0	0	522
2	0	0	0	0	515
3	0	0	0	0	528
4	0	0	0	0	518
5	0	0	0	0	525
6	0	0	0	0	520
7	0	0	0	0	511
8	0	0	0	0	526
9	0	0	0	0	515
10	0	0	0	0	525
11	0	0	0	0	519
12	0	0	0	0	511
13	0	0	0	0	526
14	0	0	0	0	516
15	0	0	0	0	522
0	0	0	0	0	517
1	0	0	0	0	508
2	0	0	0	0	522
3	0	0	0	0	510
4	0	0	0	0	515
5	0	0	0	0	511
6	0	0	0	0	500
7	0	0	0	0	514
8	0	0	0	0	504
9	0	0	0	0	508
10	0	0	0	0	504
11	0	0	0	0	496
12	0	0	0	0	511
13	0	0	0	0	500
14	0	0	0	0	508
15	0	0	0	0	505
0	0	0	0	0	498
1	0	0	0	0	514
2	0	0	0	0	504
3	0	0	0	0	509
4	0	0	0	0	509
5	0	0	0	0	503
6	0	0	0	0	522
7	0	0	0	0	515
8	0	0	0	0	515
9	0	0	0	0	512
10	0	0	0	0	503
11	0	0	0	0	515
12	0	0	0	0	505
13	0	0	0	0	513
14	0	0	0	0	512
15	0	0	0	0	504
0	0	0	0	0	490
1	0	0	0	0	482
2	0	0	0	0	602
3	0	0	0	0	896
4	0	0	0	0	848
5	0	0	0	0	492
6	0	0	0	0	412
7	0	0	0	0	415
8	0	0	0	0	419
9	0	0	0	0	417
10	0	0	0	0	441
11	0	0	0	0	440
12	0	0	0	0	453
13	0	0	0	0	460
14	0	0	0	0	458
15	0	0	0	0	478
0	0	0	0	0	471
1	0	0	0	0	479
2	0	0	0	0	485
3	0	0	0	0	478
4	0	0	0	0	497
5	0	0	0	0	490
6	0	0	0	0	495
7	0	0	0	0	498
8	0	0	0	0	490
9	0	0	0	0	507
10	0	0	0	0	498
11	0	0	0	0	503
12	0	0	0	0	507
13	0	0	0	0	500
14	0	0	0	0	517
15	0	0	0	0	508
0	0	0	0	0	515
1	0	0	0	0	520
2	0	0	0	0	513
3	0	0	0	0	528
4	0	0	0	0	516
5	0	0	0	0	515
6	0	0	0	0	512
7	0	0	0	0	505
8	0	0	0	0	518
9	0	0	0	0	505
10	0	0	0	0	509
11	0	0	0	0	510
12	0	0	0	0	503
13	0	0	0	0	517
14	0	0	0	0	506
15	0	0	0	0	509
0	0	0	0	0	511
1	0	0	0	0	502
2	0	0	0	0	515
3	0	0	0	0	508
4	0	0	0	0	508
5	0	0	0	0	511
6	0	0	0	0	504
7	0	0	0	0	519
8	0	0	0	0	509
9	0	0	0	0	512
10	0	0	0	0	514
11	0	0	0	0	506
12	0	0	0	0	521
13	0	0	0	0	511
14	0	0	0	0	512
15	0	0	0	0	515
0	0	0	0	0	506
1	0	0	0	0	521
2	0	0	0	0	511
3	0	0	0	0	513
4	0	0	0	0	516
5	0	0	0	0	507
6	0	0	0	0	519
7	0	0	0	0	510
8	0	0	0	0	512
9	0	0	0	0	515
10	0	0	0	0	507
11	0	0	0	0	518
12	0	0	0	0	507
13	0	0	0	0	505
14	0	0	0	0	511
15	0	0	0	0	504
0	0	0	0	0	518
1	0	0	0	0	506
2	0	0	0	0	505
3	0	0	0	0	510
4	0	0	0	0	502
5	0	0	0	0	516
6	0	0	0	0	508
7	0	0	0	0	507
8	0	0	0	0	512
9	0	0	0	0	504
10	0	0	0	0	516
11	0	0	0	0	505
12	0	0	0	0	505
13	0	0	0	0	511
14	0	0	0	0	502
15	0	0	0	0	518
0	0	0	0	0	508
1	0	0	0	0	510
2	0	0	0	0	520
3	0	0	0	0	508
4	0	0	0	0	519
5	0	0	0	0	508
6	0	0	0	0	507
7	0	0	0	0	511
8	0	0	0	0	504
9	0	0	0	0	519
10	0	0	0	0	510
11	0	0	0	0	496
12	0	0	0	0	476
13	0	0	0	0	509
14	0	0	0	0	745
15	0	0	0	0	995
0	0	0	0	0	620
1	0	0	0	0	444
2	0	0	0	0	414
3	0	0	0	0	431
4	0	0	0	0	426
5	0	0	0	0	433
6	0	0	0	0	449
7	0	0	0	0	449
8	0	0	0	0	466
9	0	0	0	0	463
10	0	0	0	0	470
11	0	0	0	0	481
12	0	0	0	0	477
13	0	0	0	0	495
14	0	0	0	0	487
15	0	0	0	0	486
0	0	0	0	0	493
1	0	0	0	0	476
2	0	0	0	0	487
3	0	0	0	0	475
4	0	0	0	0	472
5	0	0	0	0	484
6	0	0	0	0	480
7	0	0	0	0	498
8	0	0	0	0	494
9	0	0	0	0	495
10	0	0	0	0	506
11	0	0	0	0	504
12	0	0	0	0	523
13	0	0	0	0	515
14	0	0	0	0	515
15	0	0	0	0	522
0	0	0	0	0	511
1	0	0	0	0	519
2	0	0	0	0	507
3	0	0	0	0	501
4	0	0	0	0	510
5	0	0	0	0	504
6	0	0	0	0	515
7	0	0	0	0	508
8	0	0	0	0	505
9	0	0	0	0	512
10	0	0	0	0	506
11	0	0	0	0	517
12	0	0	0	0	510
13	0	0	0	0	508
14	0	0	0	0	516
15	0	0	0	0	507
0	0	0	0	0	521
1	0	0	0	0	510
2	0	0	0	0	509
3	0	0	0	0	519
4	0	0	0	0	512
5	0	0	0	0	524
6	0	0	0	0	515
7	0	0	0	0	512
8	0	0	0	0	520
9	0	0	0	0	512
10	0	0	0	0	523
11	0	0	0	0	516
12	0	0	0	0	512
13	0	0	0	0	519
14	0	0	0	0	512
15	0	0	0	0	524
0	0	0	0	0	515
1	0	0	0	0	513
2	0	0	0	0	522
3	0	0	0	0	512
4	0	0	0	0	525
5	0	0	0	0	515
6	0	0	0	0	512
7	0	0	0	0	518
8	0	0	0	0	511
9	0	0	0	0	522
10	0	0	0	0	512
11	0	0	0	0	508
12	0	0	0	0	515
13	0	0	0	0	505
14	0	0	0	0	513
15	0	0	0	0	503
0	0	0	0	0	496
1	0	0	0	0	502
2	0	0	0	0	494
3	0	0	0	0	503
4	0	0	0	0	491
5	0	0	0	0	483
6	0	0	0	0	491
7	0	0	0	0	482
8	0	0	0	0	498
9	0	0	0	0	492
10	0	0	0	0	494
11	0	0	0	0	503
12	0	0	0	0	488
13	0	0	0	0	494
14	0	0	0	0	480
15	0	0	0	0	475
0	0	0	0	0	484
1	0	0	0	0	478
2	0	0	0	0	493
3	0	0	0	0	486
4	0	0	0	0	454
5	0	0	0	0	467
6	0	0	0	0	560
7	0	0	0	0	870
8	0	0	0	0	824
9	0	0	0	0	496
10	0	0	0	0	426
11	0	0	0	0	411
12	0	0	0	0	427
13	0	0	0	0	427
14	0	0	0	0	433
15	0	0	0	0	453
0	0	0	0	0	452
1	0	0	0	0	473
2	0	0	0	0	472
3	0	0	0	0	473
4	0	0	0	0	487
5	0	0	0	0	484
6	0	0	0	0	496
7	0	0	0	0	490
8	0	0	0	0	485
9	0	0	0	0	497
10	0	0	0	0	492
11	0	0	0	0	504
12	0	0	0	0	499
13	0	0	0	0	496
14	0	0	0	0	507
15	0	0	0	0	500
0	0	0	0	0	513
1	0	0	0	0	510
2	0	0	0	0	509
3	0	0	0	0	519
4	0	0	0	0	515
5	0	0	0	0	529
6	0	0	0	0	526
7	0	0	0	0	521
8	0	0	0	0	530
9	0	0	0	0	521
10	0	0	0	0	530
11	0	0	0	0	520
12	0	0	0	0	516
13	0	0	0	0	526
14	0	0	0	0	519
15	0	0	0	0	527
0	0	0	0	0	519
1	0	0	0	0	514
2	0	0	0	0	524
3	0	0	0	0	518
4	0	0	0	0	527
5	0	0	0	0	521
6	0	0	0	0	517
7	0	0	0	0	524
8	0	0	0	0	519
9	0	0	0	0	527
10	0	0	0	0	522
11	0	0	0	0	517
12	0	0	0	0	526
13	0	0	0	0	519
14	0	0	0	0	526
15	0	0	0	0	519
0	0	0	0	0	514
1	0	0	0	0	524
2	0	0	0	0	516
3	0	0	0	0	523
4	0	0	0	0	516
5	0	0	0	0	511
6	0	0	0	0	519
7	0	0	0	0	511
8	0	0	0	0	519
9	0	0	0	0	515
10	0	0	0	0	510
11	0	0	0	0	518
12	0	0	0	0	512
13	0	0	0	0	519
14	0	0	0	0	512
15	0	0	0	0	508
0	0	0	0	0	516
1	0	0	0	0	507
2	0	0	0	0	515
3	0	0	0	0	508
4	0	0	0	0	502
5	0	0	0	0	512
6	0	0	0	0	504
7	0	0	0	0	512
8	0	0	0	0	510
9	0	0	0	0	503
10	0	0	0	0	512
11	0	0	0	0	504
12	0	0	0	0	509
13	0	0	0	0	503
14	0	0	0	0	500
15	0	0	0	0	512
0	0	0	0	0	509
1	0	0	0	0	513
2	0	0	0	0	506
3	0	0	0	0	498
4	0	0	0	0	505
5	0	0	0	0	497
6	0	0	0	0	507
7	0	0	0	0	504
8	0	0	0	0	500
9	0	0	0	0	480
10	0	0	0	0	472
11	0	0	0	0	563
12	0	0	0	0	852
13	0	0	0	0	829
14	0	0	0	0	520
15	0	0	0	0	425
0	0	0	0	0	423
1	0	0	0	0	423
2	0	0	0	0	424
3	0	0	0	0	441
4	0	0	0	0	441
5	0	0	0	0	455
6	0	0	0	0	458
7	0	0	0	0	460
8	0	0	0	0	474
9	0	0	0	0	472
10	0	0	0	0	480
11	0	0	0	0	479
12	0	0	0	0	476
13	0	0	0	0	488
14	0	0	0	0	483
15	0	0	0	0	491
0	0	0	0	0	490
1	0	0	0	0	484
2	0	0	0	0	494
3	0	0	0	0	488
4	0	0	0	0	500
5	0	0	0	0	497
6	0	0	0	0	495
7	0	0	0	0	508
8	0	0	0	0	503
9	0	0	0	0	512
10	0	0	0	0	514
11	0	0	0	0	512
12	0	0	0	0	522
13	0	0	0	0	513
14	0	0	0	0	518
15	0	0	0	0	514
0	0	0	0	0	509
1	0	0	0	0	518
2	0	0	0	0	510
3	0	0	0	0	514
4	0	0	0	0	511
5	0	0	0	0	505
6	0	0	0	0	514
7	0	0	0	0	506
8	0	0	0	0	511
9	0	0	0	0	507
10	0	0	0	0	501
11	0	0	0	0	512
12	0	0	0	0	504
13	0	0	0	0	509
14	0	0	0	0	507
15	0	0	0	0	500
0	0	0	0	0	513
1	0	0	0	0	504
2	0	0	0	0	508
3	0	0	0	0	507
4	0	0	0	0	501
5	0	0	0	0	513
6	0	0	0	0	504
7	0	0	0	0	510
8	0	0	0	0	510
9	0	0	0	0	504
10	0	0	0	0	515
11	0	0	0	0	508
12	0	0	0	0	513
13	0	0	0	0	512
14	0	0	0	0	506
15	0	0	0	0	518
0	0	0	0	0	510
1	0	0	0	0	513
2	0	0	0	0	512
3	0	0	0	0	503
4	0	0	0	0	516
5	0	0	0	0	506
6	0	0	0	0	511
7	0	0	0	0	513
8	0	0	0	0	513
9	0	0	0	0	526
10	0	0	0	0	509
11	0	0	0	0	510
12	0	0	0	0	505
13	0	0	0	0	496
14	0	0	0	0	511
15	0	0	0	0	502
0	0	0	0	0	506
1	0	0	0	0	499
2	0	0	0	0	467
3	0	0	0	0	508
4	0	0	0	0	648
5	0	0	0	0	947
6	0	0	0	0	651
7	0	0	0	0	459
8	0	0	0	0	440
9	0	0	0	0	430
10	0	0	0	0	437
11	0	0	0	0	444
12	0	0	0	0	444
13	0	0	0	0	465
14	0	0	0	0	467
15	0	0	0	0	481
0	0	0	0	0	489
1	0	0	0	0	487
2	0	0	0	0	503
3	0	0	0	0	496
4	0	0	0	0	503
5	0	0	0	0	504
6	0	0	0	0	498
7	0	0	0	0	511
8	0	0	0	0	503
9	0	0	0	0	505
10	0	0	0	0	508
11	0	0	0	0	502
12	0	0	0	0	515
13	0	0	0	0	508
14	0	0	0	0	512
15	0	0	0	0	513
0	0	0	0	0	508
1	0	0	0	0	523
2	0	0	0	0	515
3	0	0	0	0	516
4	0	0	0	0	516
5	0	0	0	0	504
6	0	0	0	0	515
7	0	0	0	0	501
8	0	0	0	0	502
9	0	0	0	0	503
10	0	0	0	0	494
11	0	0	0	0	508
12	0	0	0	0	500
13	0	0	0	0	502
14	0	0	0	0	505
15	0	0	0	0	497
0	0	0	0	0	509
1	0	0	0	0	497
2	0	0	0	0	499
3	0	0	0	0	502
4	0	0	0	0	497
5	0	0	0	0	514
6	0	0	0	0	507
7	0	0	0	0	507
8	0	0	0	0	511
9	0	0	0	0	504
10	0	0	0	0	518
11	0	0	0	0	507
12	0	0	0	0	506
13	0	0	0	0	511
14	0	0	0	0	502
15	0	0	0	0	515
0	0	0	0	0	505
1	0	0	0	0	505
2	0	0	0	0	509
3	0	0	0	0	501
4	0	0	0	0	514
5	0	0	0	0	504
6	0	0	0	0	504
7	0	0	0	0	508
8	0	0	0	0	505
9	0	0	0	0	523
10	0	0	0	0	505
11	0	0	0	0	504
12	0	0	0	0	507
13	0	0	0	0	496
14	0	0	0	0	509
15	0	0	0	0	502
0	0	0	0	0	502
1	0	0	0	0	507
2	0	0	0	0	474
3	0	0	0	0	487
4	0	0	0	0	550
5	0	0	0	0	768
6	0	0	0	0	876
7	0	0	0	0	547
8	0	0	0	0	457
9	0	0	0	0	436
10	0	0	0	0	439
11	0	0	0	0	451
12	0	0	0	0	451
13	0	0	0	0	471
14	0	0	0	0	463
15	0	0	0	0	466
0	0	0	0	0	474
1	0	0	0	0	471
2	0	0	0	0	487
3	0	0	0	0	480
4	0	0	0	0	481
5	0	0	0	0	491
6	0	0	0	0	484
7	0	0	0	0	501
8	0	0	0	0	493
9	0	0	0	0	494
10	0	0	0	0	504
11	0	0	0	0	496
12	0	0	0	0	513
13	0	0	0	0	504
14	0	0	0	0	503
15	0	0	0	0	514
0	0	0	0	0	509
1	0	0	0	0	527
2	0	0	0	0	517
3	0	0	0	0	512
4	0	0	0	0	518
5	0	0	0	0	507
6	0	0	0	0	518
7	0	0	0	0	508
8	0	0	0	0	503
9	0	0	0	0	510
10	0	0	0	0	499
11	0	0	0	0	512
12	0	0	0	0	500
13	0	0	0	0	499
14	0	0	0	0	508
15	0	0	0	0	499
0	0	0	0	0	516
1	0	0	0	0	506
2	0	0	0	0	503
3	0	0	0	0	514
4	0	0	0	0	508
5	0	0	0	0	522
6	0	0	0	0	512
7	0	0	0	0	508
8	0	0	0	0	519
9	0	0	0	0	509
10	0	0	0	0	523
11	0	0	0	0	516
12	0	0	0	0	512
13	0	0	0	0	524
14	0	0	0	0	515
15	0	0	0	0	531
0	0	0	0	0	518
1	0	0	0	0	515
2	0	0	0	0	525
3	0	0	0	0	521
4	0	0	0	0	530
5	0	0	0	0	515
6	0	0	0	0	508
7	0	0	0	0	512
8	0	0	0	0	504
9	0	0	0	0	520
10	0	0	0	0	507
11	0	0	0	0	503
12	0	0	0	0	506
13	0	0	0	0	472
14	0	0	0	0	518
15	0	0	0	0	639
0	0	0	0	0	920
1	0	0	0	0	649
2	0	0	0	0	448
3	0	0	0	0	429
4	0	0	0	0	424
5	0	0	0	0	426
6	0	0	0	0	445
7	0	0	0	0	442
8	0	0	0	0	464
9	0	0	0	0	457
10	0	0	0	0	459
11	0	0	0	0	472
12	0	0	0	0	471
13	0	0	0	0	490
14	0	0	0	0	485
15	0	0	0	0	483
0	0	0	0	0	496
1	0	0	0	0	490
2	0	0	0	0	507
3	0	0	0	0	498
4	0	0	0	0	495
5	0	0	0	0	510
6	0	0	0	0	506
7	0	0	0	0	522
8	0	0	0	0	510
9	0	0	0	0	509
10	0	0	0	0	520
11	0	0	0	0	515
12	0	0	0	0	528
13	0	0	0	0	516
14	0	0	0	0	505
15	0	0	0	0	514
0	0	0	0	0	501
1	0	0	0	0	511
2	0	0	0	0	500
3	0	0	0	0	495
4	0	0	0	0	510
5	0	0	0	0	499
6	0	0	0	0	514
7	0	0	0	0	508
8	0	0	0	0	504
9	0	0	0	0	518
10	0	0	0	0	509
11	0	0	0	0	522
12	0	0	0	0	512
13	0	0	0	0	504
14	0	0	0	0	519
15	0	0	0	0	508
0	0	0	0	0	522
1	0	0	0	0	507
2	0	0	0	0	496
3	0	0	0	0	512
4	0	0	0	0	504
5	0	0	0	0	518
6	0	0	0	0	508
7	0	0	0	0	506
8	0	0	0	0	518
9	0	0	0	0	508
10	0	0	0	0	532
11	0	0	0	0	523
12	0	0	0	0	514
13	0	0	0	0	521
14	0	0	0	0	504
15	0	0	0	0	511
0	0	0	0	0	502
1	0	0	0	0	494
2	0	0	0	0	510
3	0	0	0	0	502
4	0	0	0	0	504
5	0	0	0	0	477
6	0	0	0	0	513
7	0	0	0	0	680
8	0	0	0	0	916
9	0	0	0	0	598
10	0	0	0	0	438
11	0	0	0	0	414
12	0	0	0	0	432
13	0	0	0	0	427
14	0	0	0	0	450
15	0	0	0	0	447
0	0	0	0	0	449
1	0	0	0	0	471
2	0	0	0	0	467
3	0	0	0	0	484
4	0	0	0	0	481
5	0	0	0	0	476
6	0	0	0	0	492
7	0	0	0	0	492
8	0	0	0	0	504
9	0	0	0	0	499
10	0	0	0	0	495
11	0	0	0	0	513
12	0	0	0	0	502
13	0	0	0	0	518
14	0	0	0	0	511
15	0	0	0	0	505
0	0	0	0	0	521
1	0	0	0	0	513
2	0	0	0	0	530
3	0	0	0	0	521
4	0	0	0	0	515
5	0	0	0	0	526
6	0	0	0	0	510
7	0	0	0	0	519
8	0	0	0	0	509
9	0	0	0	0	499
10	0	0	0	0	512
11	0	0	0	0	501
12	0	0	0	0	517
13	0	0	0	0	511
14	0	0	0	0	501
15	0	0	0	0	515
0	0	0	0	0	507
1	0	0	0	0	519
2	0	0	0	0	509
3	0	0	0	0	503
4	0	0	0	0	521
5	0	0	0	0	511
6	0	0	0	0	521
7	0	0	0	0	512
8	0	0	0	0	501
9	0	0	0	0	514
10	0	0	0	0	504
11	0	0	0	0	515
12	0	0	0	0	507
13	0	0	0	0	498
14	0	0	0	0	518
15	0	0	0	0	508
0	0	0	0	0	521
1	0	0	0	0	522
2	0	0	0	0	511
3	0	0	0	0	522
4	0	0	0	0	507
5	0	0	0	0	515
6	0	0	0	0	504
7	0	0	0	0	496
8	0	0	0	0	512
9	0	0	0	0	502
10	0	0	0	0	514
11	0	0	0	0	484
12	0	0	0	0	481
13	0	0	0	0	585
14	0	0	0	0	805
15	0	0	0	0	832
0	0	0	0	0	505
1	0	0	0	0	416
2	0	0	0	0	430
3	0	0	0	0	425
4	0	0	0	0	446
5	0	0	0	0	448
6	0	0	0	0	444
7	0	0	0	0	470
8	0	0	0	0	467
9	0	0	0	0	482
10	0	0	0	0	480
11	0	0	0	0	478
12	0	0	0	0	494
13	0	0	0	0	491
14	0	0	0	0	504
15	0	0	0	0	504
0	0	0	0	0	494
1	0	0	0	0	515
2	0	0	0	0	506
3	0	0	0	0	516
4	0	0	0	0	515
5	0	0	0	0	510
6	0	0	0	0	527
7	0	0	0	0	518
8	0	0	0	0	527
9	0	0	0	0	522
10	0	0	0	0	518
11	0	0	0	0	527
12	0	0	0	0	512
13	0	0	0	0	518
14	0	0	0	0	507
15	0	0	0	0	499
0	0	0	0	0	511
1	0	0	0	0	500
2	0	0	0	0	512
3	0	0	0	0	509
4	0	0	0	0	499
5	0	0	0	0	515
6	0	0	0	0	507
7	0	0	0	0	520
8	0	0	0	0	517
9	0	0	0	0	509
10	0	0	0	0	520
11	0	0	0	0	511
12	0	0	0	0	522
13	0	0	0	0	515
14	0	0	0	0	505
15	0	0	0	0	518
0	0	0	0	0	505
1	0	0	0	0	515
2	0	0	0	0	511
3	0	0	0	0	504
4	0	0	0	0	516
5	0	0	0	0	506
6	0	0	0	0	517
7	0	0	0	0	516
8	0	0	0	0	510
9	0	0	0	0	533
10	0	0	0	0	523
11	0	0	0	0	522
12	0	0	0	0	515
13	0	0	0	0	500
14	0	0	0	0	516
15	0	0	0	0	504
0	0	0	0	0	510
1	0	0	0	0	507
2	0	0	0	0	498
3	0	0	0	0	492
4	0	0	0	0	484
5	0	0	0	0	576
6	0	0	0	0	800
7	0	0	0	0	846
8	0	0	0	0	516
9	0	0	0	0	418
10	0	0	0	0	425
11	0	0	0	0	429
12	0	0	0	0	428
13	0	0	0	0	454
14	0	0	0	0	450
15	0	0	0	0	467
0	0	0	0	0	469
1	0	0	0	0	467
2	0	0	0	0	487
3	0	0	0	0	479
4	0	0	0	0	491
5	0	0	0	0	493
6	0	0	0	0	487
7	0	0	0	0	507
8	0	0	0	0	499
9	0	0	0	0	506
10	0	0	0	0	507
11	0	0	0	0	497
12	0	0	0	0	519
13	0	0	0	0	510
14	0	0	0	0	519
15	0	0	0	0	517
0	0	0	0	0	511
1	0	0	0	0	528
2	0	0	0	0	516
3	0	0	0	0	522
4	0	0	0	0	515
5	0	0	0	0	501
6	0	0	0	0	512
7	0	0	0	0	495
8	0	0	0	0	504
9	0	0	0	0	501
10	0	0	0	0	495
11	0	0	0	0	514
12	0	0	0	0	506
13	0	0	0	0	512
14	0	0	0	0	512
15	0	0	0	0	500
0	0	0	0	0	518
1	0	0	0	0	510
2	0	0	0	0	514
3	0	0	0	0	513
4	0	0	0	0	503
5	0	0	0	0	519
6	0	0	0	0	504
7	0	0	0	0	512
8	0	0	0	0	511
9	0	0	0	0	503
10	0	0	0	0	519
11	0	0	0	0	509
12	0	0	0	0	513
13	0	0	0	0	512
14	0	0	0	0	506
15	0	0	0	0	523
0	0	0	0	0	511
1	0	0	0	0	515
2	0	0	0	0	512
3	0	0	0	0	504
4	0	0	0	0	523
5	0	0	0	0	512
6	0	0	0	0	523
7	0	0	0	0	527
8	0	0	0	0	512
9	0	0	0	0	524
10	0	0	0	0	508
11	0	0	0	0	511
12	0	0	0	0	509
13	0	0	0	0	499
14	0	0	0	0	518
15	0	0	0	0	505
0	0	0	0	0	503
1	0	0	0	0	480
2	0	0	0	0	499
3	0	0	0	0	662
4	0	0	0	0	946
5	0	0	0	0	691
6	0	0	0	0	451
7	0	0	0	0	411
8	0	0	0	0	432
9	0	0	0	0	428
10	0	0	0	0	441
11	0	0	0	0	450
12	0	0	0	0	449
13	0	0	0	0	475
14	0	0	0	0	467
15	0	0	0	0	479
0	0	0	0	0	484
1	0	0	0	0	477
2	0	0	0	0	496
3	0	0	0	0	488
4	0	0	0	0	494
5	0	0	0	0	497
6	0	0	0	0	489
7	0	0	0	0	509
8	0	0	0	0	499
9	0	0	0	0	505
10	0	0	0	0	509
11	0	0	0	0	503
12	0	0	0	0	521
13	0	0	0	0	512
14	0	0	0	0	516
15	0	0	0	0	518
0	0	0	0	0	509
1	0	0	0	0	526
2	0	0	0	0	509
3	0	0	0	0	511
4	0	0	0	0	508
5	0	0	0	0	496
6	0	0	0	0	513
7	0	0	0	0	503
8	0	0	0	0	504
9	0	0	0	0	510
10	0	0	0	0	501
11	0	0	0	0	520
12	0	0	0	0	509
13	0	0	0	0	514
14	0	0	0	0	513
15	0	0	0	0	505
0	0	0	0	0	523
1	0	0	0	0	510
2	0	0	0	0	513
3	0	0	0	0	517
4	0	0	0	0	506
5	0	0	0	0	524
6	0	0	0	0	511
7	0	0	0	0	513
8	0	0	0	0	516
9	0	0	0	0	505
10	0	0	0	0	522
11	0	0	0	0	509
12	0	0	0	0	512
13	0	0	0	0	516
14	0	0	0	0	505
15	0	0	0	0	521
0	0	0	0	0	511
1	0	0	0	0	514
2	0	0	0	0	515
3	0	0	0	0	506
4	0	0	0	0	521
5	0	0	0	0	511
6	0	0	0	0	514
7	0	0	0	0	516
8	0	0	0	0	504
9	0	0	0	0	521
10	0	0	0	0	510
11	0	0	0	0	511
12	0	0	0	0	517
13	0	0	0	0	507
14	0	0	0	0	523
15	0	0	0	0	511
0	0	0	0	0	510
1	0	0	0	0	514
2	0	0	0	0	504
3	0	0	0	0	520
4	0	0	0	0	508
5	0	0	0	0	511
6	0	0	0	0	515
7	0	0	0	0	502
8	0	0	0	0	516
9	0	0	0	0	503
10	0	0	0	0	504
11	0	0	0	0	509
12	0	0	0	0	506
13	0	0	0	0	526
14	0	0	0	0	506
15	0	0	0	0	505
0	0	0	0	0	509
1	0	0	0	0	496
2	0	0	0	0	513
3	0	0	0	0	504
4	0	0	0	0	504
5	0	0	0	0	508
6	0	0	0	0	471
7	0	0	0	0	497
8	0	0	0	0	614
9	0	0	0	0	912
10	0	0	0	0	797
11	0	0	0	0	455
12	0	0	0	0	423
13	0	0	0	0	415
14	0	0	0	0	421
15	0	0	0	0	437
0	0	0	0	0	437
1	0	0	0	0	462
2	0	0	0	0	459
3	0	0	0	0	465
4	0	0	0	0	476
5	0	0	0	0	472
6	0	0	0	0	492
7	0	0	0	0	484
8	0	0	0	0	485
9	0	0	0	0	496
10	0	0	0	0	490
11	0	0	0	0	508
12	0	0	0	0	499
13	0	0	0	0	502
14	0	0	0	0	507
15	0	0	0	0	499
0	0	0	0	0	518
1	0	0	0	0	510
2	0	0	0	0	513
3	0	0	0	0	522
4	0	0	0	0	517
5	0	0	0	0	536
6	0	0	0	0	526
7	0	0	0	0	527
8	0	0	0	0	532
9	0	0	0	0	519
10	0	0	0	0	531
11	0	0	0	0	516
12	0	0	0	0	513
13	0	0	0	0	519
14	0	0	0	0	511
15	0	0	0	0	527
0	0	0	0	0	514
1	0	0	0	0	513
2	0	0	0	0	520
3	0	0	0	0	511
4	0	0	0	0	525
5	0	0	0	0	515
6	0	0	0	0	511
7	0	0	0	0	519
8	0	0	0	0	508
9	0	0	0	0	523
10	0	0	0	0	509
11	0	0	0	0	504
12	0	0	0	0	509
13	0	0	0	0	499
14	0	0	0	0	515
15	0	0	0	0	504
0	0	0	0	0	501
1	0	0	0	0	509
2	0	0	0	0	502
3	0	0	0	0	519
4	0	0	0	0	508
5	0	0	0	0	506
6	0	0	0	0	514
7	0	0	0	0	505
8	0	0	0	0	521
9	0	0	0	0	509
10	0	0	0	0	508
11	0	0	0	0	513
12	0	0	0	0	505
13	0	0	0	0	521
14	0	0	0	0	510
15	0	0	0	0	511
0	0	0	0	0	519
1	0	0	0	0	510
2	0	0	0	0	525
3	0	0	0	0	515
4	0	0	0	0	513
5	0	0	0	0	519
6	0	0	0	0	510
7	0	0	0	0	524
8	0	0	0	0	514
9	0	0	0	0	512
10	0	0	0	0	519
11	0	0	0	0	510
12	0	0	0	0	525
13	0	0	0	0	516
14	0	0	0	0	512
15	0	0	0	0	518
0	0	0	0	0	509
1	0	0	0	0	522
2	0	0	0	0	508
3	0	0	0	0	508
4	0	0	0	0	517
5	0	0	0	0	512
6	0	0	0	0	531
7	0	0	0	0	512
8	0	0	0	0	509
9	0	0	0	0	515
10	0	0	0	0	504
11	0	0	0	0	519
12	0	0	0	0	508
13	0	0	0	0	506
14	0	0	0	0	510
15	0	0	0	0	473
0	0	0	0	0	485
1	0	0	0	0	575
2	0	0	0	0	862
3	0	0	0	0	890
4	0	0	0	0	488
5	0	0	0	0	421
6	0	0	0	0	406
7	0	0	0	0	407
8	0	0	0	0	423
9	0	0	0	0	420
10	0	0	0	0	444
11	0	0	0	0	442
12	0	0	0	0	445
13	0	0	0	0	459
14	0	0	0	0	455
15	0	0	0	0	475
0	0	0	0	0	470
1	0	0	0	0	471
2	0	0	0	0	482
3	0	0	0	0	475
4	0	0	0	0	491
5	0	0	0	0	484
6	0	0	0	0	483
7	0	0	0	0	494
8	0	0	0	0	487
9	0	0	0	0	503
10	0	0	0	0	496
11	0	0	0	0	497
12	0	0	0	0	509
13	0	0	0	0	503
14	0	0	0	0	520
15	0	0	0	0	512
0	0	0	0	0	512
1	0	0	0	0	523
2	0	0	0	0	512
3	0	0	0	0	524
4	0	0	0	0	511
5	0	0	0	0	507
6	0	0	0	0	512
7	0	0	0	0	503
8	0	0	0	0	518
9	0	0	0	0	508
10	0	0	0	0	504
11	0	0	0	0	513
12	0	0	0	0	506
13	0	0	0	0	520
14	0	0	0	0	510
15	0	0	0	0	506
0	0	0	0	0	516
1	0	0	0	0	510
2	0	0	0	0	523
3	0	0	0	0	512
4	0	0	0	0	508
5	0	0	0	0	516
6	0	0	0	0	508
7	0	0	0	0	521
8	0	0	0	0	512
9	0	0	0	0	508
10	0	0	0	0	516
11	0	0	0	0	507
12	0	0	0	0	522
13	0	0	0	0	511
14	0	0	0	0	507
15	0	0	0	0	512
0	0	0	0	0	503
1	0	0	0	0	517
2	0	0	0	0	507
3	0	0	0	0	503
4	0	0	0	0	511
5	0	0	0	0	504
6	0	0	0	0	516
7	0	0	0	0	506
8	0	0	0	0	502
9	0	0	0	0	512
10	0	0	0	0	503
11	0	0	0	0	516
12	0	0	0	0	505
13	0	0	0	0	503
14	0	0	0	0	511
15	0	0	0	0	502
0	0	0	0	0	515
1	0	0	0	0	505
2	0	0	0	0	501
3	0	0	0	0	510
4	0	0	0	0	501
5	0	0	0	0	514
6	0	0	0	0	505
7	0	0	0	0	503
8	0	0	0	0	510
9	0	0	0	0	505
10	0	0	0	0	517
11	0	0	0	0	509
12	0	0	0	0	507
13	0	0	0	0	519
14	0	0	0	0	511
15	0	0	0	0	519
0	0	0	0	0	509
1	0	0	0	0	502
2	0	0	0	0	511
3	0	0	0	0	502
4	0	0	0	0	516
5	0	0	0	0	508
6	0	0	0	0	499
7	0	0	0	0	476
8	0	0	0	0	489
9	0	0	0	0	672
10	0	0	0	0	969
11	0	0	0	0	722
12	0	0	0	0	463
13	0	0	0	0	416
14	0	0	0	0	428
15	0	0	0	0	423
0	0	0	0	0	427
1	0	0	0	0	444
2	0	0	0	0	444
3	0	0	0	0	466
4	0	0	0	0	463
5	0	0	0	0	464
6	0	0	0	0	478
7	0	0	0	0	473
8	0	0	0	0	490
9	0	0	0	0	482
10	0	0	0	0	480
11	0	0	0	0	492
12	0	0	0	0	487
13	0	0	0	0	503
14	0	0	0	0	495
15	0	0	0	0	492
0	0	0	0	0	502
1	0	0	0	0	496
2	0	0	0	0	511
3	0	0	0	0	506
4	0	0	0	0	504
5	0	0	0	0	518
6	0	0	0	0	512
7	0	0	0	0	528
8	0	0	0	0	522
9	0	0	0	0	519
10	0	0	0	0	528
11	0	0	0	0	516
12	0	0	0	0	528
13	0	0	0	0	519
14	0	0	0	0	513
15	0	0	0	0	518
0	0	0	0	0	501
1	0	0	0	0	508
2	0	0	0	0	497
3	0	0	0	0	490
4	0	0	0	0	499
5	0	0	0	0	492
6	0	0	0	0	506
7	0	0	0	0	497
8	0	0	0	0	494
9	0	0	0	0	506
10	0	0	0	0	497
11	0	0	0	0	513
12	0	0	0	0	508
13	0	0	0	0	504
14	0	0	0	0	514
15	0	0	0	0	506
0	0	0	0	0	521
1	0	0	0	0	512
2	0	0	0	0	510
3	0	0	0	0	520
4	0	0	0	0	511
5	0	0	0	0	523
6	0	0	0	0	514
7	0	0	0	0	510
8	0	0	0	0	520
9	0	0	0	0	514
10	0	0	0	0	526
11	0	0	0	0	515
12	0	0	0	0	509
13	0	0	0	0	517
14	0	0	0	0	508
15	0	0	0	0	520
0	0	0	0	0	508
1	0	0	0	0	502
2	0	0	0	0	509
3	0	0	0	0	499
4	0	0	0	0	512
5	0	0	0	0	503
6	0	0	0	0	498
7	0	0	0	0	510
8	0	0	0	0	504
9	0	0	0	0	519
10	0	0	0	0	509
11	0	0	0	0	504
12	0	0	0	0	515
13	0	0	0	0	506
14	0	0	0	0	518
15	0	0	0	0	509
0	0	0	0	0	506
1	0	0	0	0	515
2	0	0	0	0	510
3	0	0	0	0	524
4	0	0	0	0	520
5	0	0	0	0	511
6	0	0	0	0	518
7	0	0	0	0	509
8	0	0	0	0	521
9	0	0	0	0	510
10	0	0	0	0	506
11	0	0	0	0	513
12	0	0	0	0	507
13	0	0	0	0	491
14	0	0	0	0	476
15	0	0	0	0	550
0	0	0	0	0	839
1	0	0	0	0	886
2	0	0	0	0	543
3	0	0	0	0	431
4	0	0	0	0	415
5	0	0	0	0	428
6	0	0	0	0	427
7	0	0	0	0	446
8	0	0	0	0	446
9	0	0	0	0	449
10	0	0	0	0	467
11	0	0	0	0	464
12	0	0	0	0	479
13	0	0	0	0	475
14	0	0	0	0	473
15	0	0	0	0	484
0	0	0	0	0	480
1	0	0	0	0	494
2	0	0	0	0	488
3	0	0	0	0	484
4	0	0	0	0	498
5	0	0	0	0	490
6	0	0	0	0	501
7	0	0	0	0	495
8	0	0	0	0	493
9	0	0	0	0	505
10	0	0	0	0	499
11	0	0	0	0	513
12	0	0	0	0	507
13	0	0	0	0	504
14	0	0	0	0	518
15	0	0	0	0	513
0	0	0	0	0	525
1	0	0	0	0	517
2	0	0	0	0	510
3	0	0	0	0	519
4	0	0	0	0	512
5	0	0	0	0	522
6	0	0	0	0	511
7	0	0	0	0	506
8	0	0	0	0	512
9	0	0	0	0	503
10	0	0	0	0	511
11	0	0	0	0	499
12	0	0	0	0	492
13	0	0	0	0	501
14	0	0	0	0	492
15	0	0	0	0	501
0	0	0	0	0	490
1	0	0	0	0	484
2	0	0	0	0	493
3	0	0	0	0	483
4	0	0	0	0	494
5	0	0	0	0	484
6	0	0	0	0	481
7	0	0	0	0	492
8	0	0	0	0	485
9	0	0	0	0	496
10	0	0	0	0	492
11	0	0	0	0	489
12	0	0	0	0	501
13	0	0	0	0	494
14	0	0	0	0	505
15	0	0	0	0	500
0	0	0	0	0	498
1	0	0	0	0	507
2	0	0	0	0	502
3	0	0	0	0	513
4	0	0	0	0	505
5	0	0	0	0	502
6	0	0	0	0	513
7	0	0	0	0	505
8	0	0	0	0	517
9	0	0	0	0	512
10	0	0	0	0	508
11	0	0	0	0	518
12	0	0	0	0	510
13	0	0	0	0	521
14	0	0	0	0	513
15	0	0	0	0	510
0	0	0	0	0	519
1	0	0	0	0	512
2	0	0	0	0	522
3	0	0	0	0	515
4	0	0	0	0	512
5	0	0	0	0	526
6	0	0	0	0	519
7	0	0	0	0	525
8	0	0	0	0	516
9	0	0	0	0	511
10	0	0	0	0	518
11	0	0	0	0	511
12	0	0	0	0	521
13	0	0	0	0	513
14	0	0	0	0	504
15	0	0	0	0	481
0	0	0	0	0	487
1	0	0	0	0	630
2	0	0	0	0	938
3	0	0	0	0	728
4	0	0	0	0	487
5	0	0	0	0	426
6	0	0	0	0	435
7	0	0	0	0	431
8	0	0	0	0	433
9	0	0	0	0	451
10	0	0	0	0	452
11	0	0	0	0	470
12	0	0	0	0	468
13	0	0	0	0	468
14	0	0	0	0	481
15	0	0	0	0	476
0	0	0	0	0	491
1	0	0	0	0	485
2	0	0	0	0	482
3	0	0	0	0	494
4	0	0	0	0	487
5	0	0	0	0	501
6	0	0	0	0	494
7	0	0	0	0	489
8	0	0	0	0	500
9	0	0	0	0	496
10	0	0	0	0	509
11	0	0	0	0	503
12	0	0	0	0	500
13	0	0	0	0	514
14	0	0	0	0	510
15	0	0	0	0	523
0	0	0	0	0	519
1	0	0	0	0	517
2	0	0	0	0	528
3	0	0	0	0	516
4	0	0	0	0	524
5	0	0	0	0	516
6	0	0	0	0	508
7	0	0	0	0	518
8	0	0	0	0	511
9	0	0	0	0	521
10	0	0	0	0	511
11	0	0	0	0	506
12	0	0	0	0	514
13	0	0	0	0	507
14	0	0	0	0	518
15	0	0	0	0	511
0	0	0	0	0	505
1	0	0	0	0	516
2	0	0	0	0	510
3	0	0	0	0	521
4	0	0	0	0	514
5	0	0	0	0	512
6	0	0	0	0	526
7	0	0	0	0	519
8	0	0	0	0	531
9	0	0	0	0	521
10	0	0	0	0	515
11	0	0	0	0	523
12	0	0	0	0	513
13	0	0	0	0	524
14	0	0	0	0	516
15	0	0	0	0	511
0	0	0	0	0	519
1	0	0	0	0	510
2	0	0	0	0	520
3	0	0	0	0	510
4	0	0	0	0	505
5	0	0	0	0	513
6	0	0	0	0	504
7	0	0	0	0	511
8	0	0	0	0	502
9	0	0	0	0	496
10	0	0	0	0	511
11	0	0	0	0	504
12	0	0	0	0	507
13	0	0	0	0	497
14	0	0	0	0	486
15	0	0	0	0	496
0	0	0	0	0	490
1	0	0	0	0	504
2	0	0	0	0	503
3	0	0	0	0	493
4	0	0	0	0	473
5	0	0	0	0	480
6	0	0	0	0	602
7	0	0	0	0	898
8	0	0	0	0	709
9	0	0	0	0	478
10	0	0	0	0	421
11	0	0	0	0	433
12	0	0	0	0	427
13	0	0	0	0	429
14	0	0	0	0	447
15	0	0	0	0	446
0	0	0	0	0	465
1	0	0	0	0	460
2	0	0	0	0	459
3	0	0	0	0	472
4	0	0	0	0	469
5	0	0	0	0	489
6	0	0	0	0	482
7	0	0	0	0	480
8	0	0	0	0	494
9	0	0	0	0	489
10	0	0	0	0	504
11	0	0	0	0	495
12	0	0	0	0	490
13	0	0	0	0	504
14	0	0	0	0	499
15	0	0	0	0	512
0	0	0	0	0	507
1	0	0	0	0	505
2	0	0	0	0	525
3	0	0	0	0	523
4	0	0	0	0	540
5	0	0	0	0	531
6	0	0	0	0	526
7	0	0	0	0	535
8	0	0	0	0	524
9	0	0	0	0	531
10	0	0	0	0	519
11	0	0	0	0	512
12	0	0	0	0	522
13	0	0	0	0	509
14	0	0	0	0	519
15	0	0	0	0	510
0	0	0	0	0	502
1	0	0	0	0	509
2	0	0	0	0	499
3	0	0	0	0	515
4	0	0	0	0	507
5	0	0	0	0	500
6	0	0	0	0	511
7	0	0	0	0	502
8	0	0	0	0	515
9	0	0	0	0	506
10	0	0	0	0	496
11	0	0	0	0	507
12	0	0	0	0	497
13	0	0	0	0	511
14	0	0	0	0	503
15	0	0	0	0	497
0	0	0	0	0	512
1	0	0	0	0	503
2	0	0	0	0	516
3	0	0	0	0	508
4	0	0	0	0	506
5	0	0	0	0	520
6	0	0	0	0	518
7	0	0	0	0	528
8	0	0	0	0	514
9	0	0	0	0	505
10	0	0	0	0	513
11	0	0	0	0	503
12	0	0	0	0	518
13	0	0	0	0	510
14	0	0	0	0	503
15	0	0	0	0	510
0	0	0	0	0	475
1	0	0	0	0	515
2	0	0	0	0	623
3	0	0	0	0	906
4	0	0	0	0	682
5	0	0	0	0	462
6	0	0	0	0	438
7	0	0	0	0	432
8	0	0	0	0	430
9	0	0	0	0	452
10	0	0	0	0	451
11	0	0	0	0	471
12	0	0	0	0	468
13	0	0	0	0	468
14	0	0	0	0	486
15	0	0	0	0	480
0	0	0	0	0	496
1	0	0	0	0	487
2	0	0	0	0	484
3	0	0	0	0	501
4	0	0	0	0	493
5	0	0	0	0	510
6	0	0	0	0	503
7	0	0	0	0	498
8	0	0	0	0	515
9	0	0	0	0	505
10	0	0	0	0	519
11	0	0	0	0	512
12	0	0	0	0	507
13	0	0	0	0	520
14	0	0	0	0	513
15	0	0	0	0	526
0	0	0	0	0	518
1	0	0	0	0	510
2	0	0	0	0	521
3	0	0	0	0	507
4	0	0	0	0	517
5	0	0	0	0	505
6	0	0	0	0	499
7	0	0	0	0	512
8	0	0	0	0	504
9	0	0	0	0	516
10	0	0	0	0	505
11	0	0	0	0	501
12	0	0	0	0	514
13	0	0	0	0	502
14	0	0	0	0	513
15	0	0	0	0	507
0	0	0	0	0	499
1	0	0	0	0	511
2	0	0	0	0	502
3	0	0	0	0	518
4	0	0	0	0	510
5	0	0	0	0	503
6	0	0	0	0	518
7	0	0	0	0	511
8	0	0	0	0	522
9	0	0	0	0	511
10	0	0	0	0	503
11	0	0	0	0	519
12	0	0	0	0	513
13	0	0	0	0	531
14	0	0	0	0	517
15	0	0	0	0	506
0	0	0	0	0	514
1	0	0	0	0	502
2	0	0	0	0	515
3	0	0	0	0	508
4	0	0	0	0	497
5	0	0	0	0	513
6	0	0	0	0	491
7	0	0	0	0	487
8	0	0	0	0	521
9	0	0	0	0	664
10	0	0	0	0	910
11	0	0	0	0	583
12	0	0	0	0	454
13	0	0	0	0	427
14	0	0	0	0	424
15	0	0	0	0	438
0	0	0	0	0	436
1	0	0	0	0	460
2	0	0	0	0	455
3	0	0	0	0	455
4	0	0	0	0	471
5	0	0	0	0	467
6	0	0	0	0	483
7	0	0	0	0	478
8	0	0	0	0	478
9	0	0	0	0	498
10	0	0	0	0	487
11	0	0	0	0	506
12	0	0	0	0	499
13	0	0	0	0	493
14	0	0	0	0	510
15	0	0	0	0	505
0	0	0	0	0	517
1	0	0	0	0	512
2	0	0	0	0	507
3	0	0	0	0	524
4	0	0	0	0	515
5	0	0	0	0	531
6	0	0	0	0	521
7	0	0	0	0	511
8	0	0	0	0	521
9	0	0	0	0	508
10	0	0	0	0	516
11	0	0	0	0	507
12	0	0	0	0	498
13	0	0	0	0	512
14	0	0	0	0	504
15	0	0	0	0	519
0	0	0	0	0	506
1	0	0	0	0	501
2	0	0	0	0	513
3	0	0	0	0	506
4	0	0	0	0	519
5	0	0	0	0	508
6	0	0	0	0	500
7	0	0	0	0	515
8	0	0	0	0	501
9	0	0	0	0	517
10	0	0	0	0	507
11	0	0	0	0	501
12	0	0	0	0	516
13	0	0	0	0	503
14	0	0	0	0	518
15	0	0	0	0	511
0	0	0	0	0	502
1	0	0	0	0	525
2	0	0	0	0	518
3	0	0	0	0	529
4	0	0	0	0	513
5	0	0	0	0	499
6	0	0	0	0	508
7	0	0	0	0	496
8	0	0	0	0	516
9	0	0	0	0	507
10	0	0	0	0	502
11	0	0	0	0	512
12	0	0	0	0	478
13	0	0	0	0	513
14	0	0	0	0	615
15	0	0	0	0	884
0	0	0	0	0	730
1	0	0	0	0	471
2	0	0	0	0	438
3	0	0	0	0	433
4	0	0	0	0	431
5	0	0	0	0	454
6	0	0	0	0	450
7	0	0	0	0	472
8	0	0	0	0	467
9	0	0	0	0	462
10	0	0	0	0	483
11	0	0	0	0	477
12	0	0	0	0	496
13	0	0	0	0	491
14	0	0	0	0	484
15	0	0	0	0	501
0	0	0	0	0	495
1	0	0	0	0	512
2	0	0	0	0	504
3	0	0	0	0	497
4	0	0	0	0	514
5	0	0	0	0	508
6	0	0	0	0	525
7	0	0	0	0	516
8	0	0	0	0	511
9	0	0	0	0	527
10	0	0	0	0	518
11	0	0	0	0	531
12	0	0	0	0	517
13	0	0	0	0	504
14	0	0	0	0	517
15	0	0	0	0	502
0	0	0	0	0	511
1	0	0	0	0	501
2	0	0	0	0	497
3	0	0	0	0	508
4	0	0	0	0	505
5	0	0	0	0	518
6	0	0	0	0	506
7	0	0	0	0	499
8	0	0	0	0	515
9	0	0	0	0	507
10	0	0	0	0	521
11	0	0	0	0	510
12	0	0	0	0	502
13	0	0	0	0	516
14	0	0	0	0	507
15	0	0	0	0	519
0	0	0	0	0	510
1	0	0	0	0	500
2	0	0	0	0	515
3	0	0	0	0	505
4	0	0	0	0	519
5	0	0	0	0	511
6	0	0	0	0	505
7	0	0	0	0	522
8	0	0	0	0	519
9	0	0	0	0	535
10	0	0	0	0	517
11	0	0	0	0	508
12	0	0	0	0	512
13	0	0	0	0	503
14	0	0	0	0	514
15	0	0	0	0	505
0	0	0	0	0	499
1	0	0	0	0	513
2	0	0	0	0	489
3	0	0	0	0	494
4	0	0	0	0	547
5	0	0	0	0	730
6	0	0	0	0	920
7	0	0	0	0	543
8	0	0	0	0	440
9	0	0	0	0	421
10	0	0	0	0	419
11	0	0	0	0	443
12	0	0	0	0	443
13	0	0	0	0	463
14	0	0	0	0	455
15	0	0	0	0	456
0	0	0	0	0	477
1	0	0	0	0	472
2	0	0	0	0	489
3	0	0	0	0	483
4	0	0	0	0	481
5	0	0	0	0	499
6	0	0	0	0	492
7	0	0	0	0	508
8	0	0	0	0	500
9	0	0	0	0	496
10	0	0	0	0	513
11	0	0	0	0	502
12	0	0	0	0	520
13	0	0	0	0	512
14	0	0	0	0	507
15	0	0	0	0	521
0	0	0	0	0	515
1	0	0	0	0	529
2	0	0	0	0	515
3	0	0	0	0	505
4	0	0	0	0	517
5	0	0	0	0	501
6	0	0	0	0	513
7	0	0	0	0	505
8	0	0	0	0	496
9	0	0	0	0	510
10	0	0	0	0	502
11	0	0	0	0	518
12	0	0	0	0	510
13	0	0	0	0	504
14	0	0	0	0	519
15	0	0	0	0	508
0	0	0	0	0	522
1	0	0	0	0	511
2	0	0	0	0	503
3	0	0	0	0	518
4	0	0	0	0	507
5	0	0	0	0	520
6	0	0	0	0	511
7	0	0	0	0	503
8	0	0	0	0	516
9	0	0	0	0	507
10	0	0	0	0	520
11	0	0	0	0	510
12	0	0	0	0	503
13	0	0	0	0	517
14	0	0	0	0	509
15	0	0	0	0	523
0	0	0	0	0	512
1	0	0	0	0	508
2	0	0	0	0	527
3	0	0	0	0	521
4	0	0	0	0	530
5	0	0	0	0	514
6	0	0	0	0	504
7	0	0	0	0	514
8	0	0	0	0	503
9	0	0	0	0	518
10	0	0	0	0	508
11	0	0	0	0	500
12	0	0	0	0	514
13	0	0	0	0	477
14	0	0	0	0	499
15	0	0	0	0	593
0	0	0	0	0	855
1	0	0	0	0	823
2	0	0	0	0	479
3	0	0	0	0	430
4	0	0	0	0	421
5	0	0	0	0	423
6	0	0	0	0	442
7	0	0	0	0	443
8	0	0	0	0	463
9	0	0	0	0	460
10	0	0	0	0	459
11	0	0	0	0	479
12	0	0	0	0	476
13	0	0	0	0	493
14	0	0	0	0	487
15	0	0	0	0	482
0	0	0	0	0	499
1	0	0	0	0	490
2	0	0	0	0	505
3	0	0	0	0	497
4	0	0	0	0	492
5	0	0	0	0	509
6	0	0	0	0	499
7	0	0	0	0	516
8	0	0	0	0	507
9	0	0	0	0	503
10	0	0	0	0	519
11	0	0	0	0	508
12	0	0	0	0	526
13	0	0	0	0	514
14	0	0	0	0	504
15	0	0	0	0	515
0	0	0	0	0	503
1	0	0	0	0	515
2	0	0	0	0	505
3	0	0	0	0	498
4	0	0	0	0	514
5	0	0	0	0	503
6	0	0	0	0	520
7	0	0	0	0	510
8	0	0	0	0	504
9	0	0	0	0	520
10	0	0	0	0	511
11	0	0	0	0	525
12	0	0	0	0	516
13	0	0	0	0	508
14	0	0	0	0	520
15	0	0	0	0	510
0	0	0	0	0	524
1	0	0	0	0	515
2	0	0	0	0	507
3	0	0	0	0	518
4	0	0	0	0	510
5	0	0	0	0	524
6	0	0	0	0	513
7	0	0	0	0	507
8	0	0	0	0	520
9	0	0	0	0	510
10	0	0	0	0	523
11	0	0	0	0	513
12	0	0	0	0	505
13	0	0	0	0	517
14	0	0	0	0	508
15	0	0	0	0	523
0	0	0	0	0	513
1	0	0	0	0	505
2	0	0	0	0	521
3	0	0	0	0	510
4	0	0	0	0	522
5	0	0	0	0	512
6	0	0	0	0	504
7	0	0	0	0	516
8	0	0	0	0	505
9	0	0	0	0	518
10	0	0	0	0	504
11	0	0	0	0	498
12	0	0	0	0	514
13	0	0	0	0	504
14	0	0	0	0	518
15	0	0	0	0	508
0	0	0	0	0	500
1	0	0	0	0	514
2	0	0	0	0	506
3	0	0	0	0	521
4	0	0	0	0	512
5	0	0	0	0	505
6	0	0	0	0	520
7	0	0	0	0	510
8	0	0	0	0	524
9	0	0	0	0	518
10	0	0	0	0	513
11	0	0	0	0	532
12	0	0	0	0	518
13	0	0	0	0	527
14	0	0	0	0	514
15	0	0	0	0	506
0	0	0	0	0	515
1	0	0	0	0	504
2	0	0	0	0	519
3	0	0	0	0	509
4	0	0	0	0	487
5	0	0	0	0	483
6	0	0	0	0	535
7	0	0	0	0	787
8	0	0	0	0	975
9	0	0	0	0	553
10	0	0	0	0	433
11	0	0	0	0	414
12	0	0	0	0	433
13	0	0	0	0	430
14	0	0	0	0	433
15	0	0	0	0	456
0	0	0	0	0	452
1	0	0	0	0	473
2	0	0	0	0	471
3	0	0	0	0	472
4	0	0	0	0	489
5	0	0	0	0	481
6	0	0	0	0	499
7	0	0	0	0	490
8	0	0	0	0	486
9	0	0	0	0	502
10	0	0	0	0	496
11	0	0	0	0	508
12	0	0	0	0	499
13	0	0	0	0	495
14	0	0	0	0	511
15	0	0	0	0	503
0	0	0	0	0	520
1	0	0	0	0	512
2	0	0	0	0	506
3	0	0	0	0	519
4	0	0	0	0	512
5	0	0	0	0	529
6	0	0	0	0	519
7	0	0	0	0	510
8	0	0	0	0	516
9	0	0	0	0	502
10	0	0	0	0	513
11	0	0	0	0	503
12	0	0	0	0	498
13	0	0	0	0	511
14	0	0	0	0	502
15	0	0	0	0	517
0	0	0	0	0	508
1	0	0	0	0	503
2	0	0	0	0	518
3	0	0	0	0	508
4	0	0	0	0	521
5	0	0	0	0	512
6	0	0	0	0	505
7	0	0	0	0	520
8	0	0	0	0	511
9	0	0	0	0	524
10	0	0	0	0	515
11	0	0	0	0	509
12	0	0	0	0	523
13	0	0	0	0	514
14	0	0	0	0	527
15	0	0	0	0	516
0	0	0	0	0	510
1	0	0	0	0	524
2	0	0	0	0	513
3	0	0	0	0	526
4	0	0	0	0	514
5	0	0	0	0	510
6	0	0	0	0	520
7	0	0	0	0	512
8	0	0	0	0	525
9	0	0	0	0	513
10	0	0	0	0	507
11	0	0	0	0	516
12	0	0	0	0	507
13	0	0	0	0	520
14	0	0	0	0	510
15	0	0	0	0	504
0	0	0	0	0	517
1	0	0	0	0	508
2	0	0	0	0	521
3	0	0	0	0	510
4	0	0	0	0	501
5	0	0	0	0	515
6	0	0	0	0	504
7	0	0	0	0	517
8	0	0	0	0	505
9	0	0	0	0	500
10	0	0	0	0	511
11	0	0	0	0	502
12	0	0	0	0	514
13	0	0	0	0	502
14	0	0	0	0	495
15	0	0	0	0	508
0	0	0	0	0	496
1	0	0	0	0	512
2	0	0	0	0	503
3	0	0	0	0	501
4	0	0	0	0	516
5	0	0	0	0	502
6	0	0	0	0	514
7	0	0	0	0	503
8	0	0	0	0	496
9	0	0	0	0	506
10	0	0	0	0	495
11	0	0	0	0	510
12	0	0	0	0	499
13	0	0	0	0	463
14	0	0	0	0	482
15	0	0	0	0	597
0	0	0	0	0	911
1	0	0	0	0	815
2	0	0	0	0	470
3	0	0	0	0	418
4	0	0	0	0	405
5	0	0	0	0	426
6	0	0	0	0	424
7	0	0	0	0	426
8	0	0	0	0	445
9	0	0	0	0	445
10	0	0	0	0	465
11	0	0	0	0	462
12	0	0	0	0	460
13	0	0	0	0	475
14	0	0	0	0	470
15	0	0	0	0	486
0	0	0	0	0	482
1	0	0	0	0	479
2	0	0	0	0	490
3	0	0	0	0	485
4	0	0	0	0	502
5	0	0	0	0	494
6	0	0	0	0	490
7	0	0	0	0	501
8	0	0	0	0	497
9	0	0	0	0	515
10	0	0	0	0	508
11	0	0	0	0	504
12	0	0	0	0	518
13	0	0	0	0	512
14	0	0	0	0	529
15	0	0	0	0	521
0	0	0	0	0	515
1	0	0	0	0	523
2	0	0	0	0	512
3	0	0	0	0	522
4	0	0	0	0	510
5	0	0	0	0	506
6	0	0	0	0	516
7	0	0	0	0	508
8	0	0	0	0	520
9	0	0	0	0	511
10	0	0	0	0	504
11	0	0	0	0	515
12	0	0	0	0	505
13	0	0	0	0	519
14	0	0	0	0	509
15	0	0	0	0	504
0	0	0	0	0	512
1	0	0	0	0	505
2	0	0	0	0	518
3	0	0	0	0	510
4	0	0	0	0	504
5	0	0	0	0	517
6	0	0	0	0	508
7	0	0	0	0	522
8	0	0	0	0	514
9	0	0	0	0	511
10	0	0	0	0	519
11	0	0	0	0	511
12	0	0	0	0	523
13	0	0	0	0	513
14	0	0	0	0	508
15	0	0	0	0	517
0	0	0	0	0	510
1	0	0	0	0	522
2	0	0	0	0	512
3	0	0	0	0	506
4	0	0	0	0	516
5	0	0	0	0	507
6	0	0	0	0	519
7	0	0	0	0	508
8	0	0	0	0	504
9	0	0	0	0	512
10	0	0	0	0	504
11	0	0	0	0	519
12	0	0	0	0	510
13	0	0	0	0	504
14	0	0	0	0	512
15	0	0	0	0	504
0	0	0	0	0	519
1	0	0	0	0	507
2	0	0	0	0	504
3	0	0	0	0	513
4	0	0	0	0	506
5	0	0	0	0	518
6	0	0	0	0	508
7	0	0	0	0	503
8	0	0	0	0	514
9	0	0	0	0	506
10	0	0	0	0	524
11	0	0	0	0	517
12	0	0	0	0	506
13	0	0	0	0	515
14	0	0	0	0	504
15	0	0	0	0	515
0	0	0	0	0	505
1	0	0	0	0	501
2	0	0	0	0	510
3	0	0	0	0	499
4	0	0	0	0	481
5	0	0	0	0	483
6	0	0	0	0	615
7	0	0	0	0	936
8	0	0	0	0	757
9	0	0	0	0	481
10	0	0	0	0	418
11	0	0	0	0	412
12	0	0	0	0	427
13	0	0	0	0	427
14	0	0	0	0	447
15	0	0	0	0	446
0	0	0	0	0	449
1	0	0	0	0	465
2	0	0	0	0	460
3	0	0	0	0	477
4	0	0	0	0	471
5	0	0	0	0	472
6	0	0	0	0	485
7	0	0	0	0	480
8	0	0	0	0	496
9	0	0	0	0	488
10	0	0	0	0	484
11	0	0	0	0	495
12	0	0	0	0	489
13	0	0	0	0	504
14	0	0	0	0	497
15	0	0	0	0	492
0	0	0	0	0	499
1	0	0	0	0	487
2	0	0	0	0	499
3	0	0	0	0	489
4	0	0	0	0	489
5	0	0	0	0	504
6	0	0	0	0	499
7	0	0	0	0	515
8	0	0	0	0	507
9	0	0	0	0	503
10	0	0	0	0	512
11	0	0	0	0	504
12	0	0	0	0	517
13	0	0	0	0	510
14	0	0	0	0	506
15	0	0	0	0	514
0	0	0	0	0	509
1	0	0	0	0	523
2	0	0	0	0	514
3	0	0	0	0	509
4	0	0	0	0	518
5	0	0	0	0	509
6	0	0	0	0	524
7	0	0	0	0	513
8	0	0	0	0	509
9	0	0	0	0	519
10	0	0	0	0	511
11	0	0	0	0	524
12	0	0	0	0	516
13	0	0	0	0	512
14	0	0	0	0	520
15	0	0	0	0	513
0	0	0	0	0	527
1	0	0	0	0	517
2	0	0	0	0	512
3	0	0	0	0	523
4	0	0	0	0	511
5	0	0	0	0	526
6	0	0	0	0	515
7	0	0	0	0	508
8	0	0	0	0	519
9	0	0	0	0	510
10	0	0	0	0	522
11	0	0	0	0	512
12	0	0	0	0	510
13	0	0	0	0	518
14	0	0	0	0	508
15	0	0	0	0	519
0	0	0	0	0	512
1	0	0	0	0	508
2	0	0	0	0	514
3	0	0	0	0	506
4	0	0	0	0	518
5	0	0	0	0	509
6	0	0	0	0	506
7	0	0	0	0	513
8	0	0	0	0	503
9	0	0	0	0	516
10	0	0	0	0	505
11	0	0	0	0	502
12	0	0	0	0	509
13	0	0	0	0	504
14	0	0	0	0	517
15	0	0	0	0	514
0	0	0	0	0	506
1	0	0	0	0	512
2	0	0	0	0	501
3	0	0	0	0	511
4	0	0	0	0	500
5	0	0	0	0	496
6	0	0	0	0	504
7	0	0	0	0	495
8	0	0	0	0	481
9	0	0	0	0	466
10	0	0	0	0	541
11	0	0	0	0	825
12	0	0	0	0	866
13	0	0	0	0	533
14	0	0	0	0	424
15	0	0	0	0	411
0	0	0	0	0	422
1	0	0	0	0	421
2	0	0	0	0	445
3	0	0	0	0	443
4	0	0	0	0	447
5	0	0	0	0	460
6	0	0	0	0	457
7	0	0	0	0	477
8	0	0	0	0	472
9	0	0	0	0	471
10	0	0	0	0	483
11	0	0	0	0	477
12	0	0	0	0	493
13	0	0	0	0	488
14	0	0	0	0	485
15	0	0	0	0	493
0	0	0	0	0	487
1	0	0	0	0	504
2	0	0	0	0	494
3	0	0	0	0	493
4	0	0	0	0	504
5	0	0	0	0	499
6	0	0	0	0	515
7	0	0	0	0	510
8	0	0	0	0	511
9	0	0	0	0	521
10	0	0	0	0	517
11	0	0	0	0	534
12	0	0	0	0	521
13	0	0	0	0	518
14	0	0	0	0	524
15	0	0	0	0	516
0	0	0	0	0	528
1	0	0	0	0	519
2	0	0	0	0	518
3	0	0	0	0	522
4	0	0	0	0	514
5	0	0	0	0	526
6	0	0	0	0	515
7	0	0	0	0	512
8	0	0	0	0	518
9	0	0	0	0	511
10	0	0	0	0	523
11	0	0	0	0	514
12	0	0	0	0	512
13	0	0	0	0	519
14	0	0	0	0	511
15	0	0	0	0	526
0	0	0	0	0	514
1	0	0	0	0	512
2	0	0	0	0	518
3	0	0	0	0	510
4	0	0	0	0	523
5	0	0	0	0	512
6	0	0	0	0	512
7	0	0	0	0	515
8	0	0	0	0	508
9	0	0	0	0	522
10	0	0	0	0	511
11	0	0	0	0	509
12	0	0	0	0	515
13	0	0	0	0	507
14	0	0	0	0	520
15	0	0	0	0	511
0	0	0	0	0	507
1	0	0	0	0	514
2	0	0	0	0	504
3	0	0	0	0	519
4	0	0	0	0	508
5	0	0	0	0	506
6	0	0	0	0	512
7	0	0	0	0	505
8	0	0	0	0	519
9	0	0	0	0	508
10	0	0	0	0	504
11	0	0	0	0	511
12	0	0	0	0	504
13	0	0	0	0	517
14	0	0	0	0	509
15	0	0	0	0	515
0	0	0	0	0	518
1	0	0	0	0	505
2	0	0	0	0	517
3	0	0	0	0	505
4	0	0	0	0	501
5	0	0	0	0	508
6	0	0	0	0	499
7	0	0	0	0	511
8	0	0	0	0	479
9	0	0	0	0	470
10	0	0	0	0	537
11	0	0	0	0	778
12	0	0	0	0	892
13	0	0	0	0	539
14	0	0	0	0	430
15	0	0	0	0	422
0	0	0	0	0	418
1	0	0	0	0	437
2	0	0	0	0	435
3	0	0	0	0	441
4	0	0	0	0	455
5	0	0	0	0	450
6	0	0	0	0	471
7	0	0	0	0	467
8	0	0	0	0	470
9	0	0	0	0	479
10	0	0	0	0	475
11	0	0	0	0	491
12	0	0	0	0	483
13	0	0	0	0	483
14	0	0	0	0	492
15	0	0	0	0	486
0	0	0	0	0	500
1	0	0	0	0	492
2	0	0	0	0	493
3	0	0	0	0	500
4	0	0	0	0	494
5	0	0	0	0	510
6	0	0	0	0	504
7	0	0	0	0	508
8	0	0	0	0	514
9	0	0	0	0	510
10	0	0	0	0	527
11	0	0	0	0	516
12	0	0	0	0	515
13	0	0	0	0	516
14	0	0	0	0	509
15	0	0	0	0	520
0	0	0	0	0	510
1	0	0	0	0	510
2	0	0	0	0	516
3	0	0	0	0	507
4	0	0	0	0	519
5	0	0	0	0	511
6	0	0	0	0	506
7	0	0	0	0	510
8	0	0	0	0	503
9	0	0	0	0	514
10	0	0	0	0	505
11	0	0	0	0	503
12	0	0	0	0	508
13	0	0	0	0	499
14	0	0	0	0	512
15	0	0	0	0	502
0	0	0	0	0	506
1	0	0	0	0	513
2	0	0	0	0	505
3	0	0	0	0	518
4	0	0	0	0	509
5	0	0	0	0	509
6	0	0	0	0	513
7	0	0	0	0	504
8	0	0	0	0	518
9	0	0	0	0	507
10	0	0	0	0	509
11	0	0	0	0	514
12	0	0	0	0	506
13	0	0	0	0	517
14	0	0	0	0	504
15	0	0	0	0	506
0	0	0	0	0	510
1	0	0	0	0	499
2	0	0	0	0	513
3	0	0	0	0	504
4	0	0	0	0	505
5	0	0	0	0	518
6	0	0	0	0	509
7	0	0	0	0	515
8	0	0	0	0	504
9	0	0	0	0	502
10	0	0	0	0	502
11	0	0	0	0	496
12	0	0	0	0	516
13	0	0	0	0	515
14	0	0	0	0	514
15	0	0	0	0	489
0	0	0	0	0	503
1	0	0	0	0	638
2	0	0	0	0	923
3	0	0	0	0	678
4	0	0	0	0	470
5	0	0	0	0	425
6	0	0	0	0	440
7	0	0	0	0	434
8	0	0	0	0	441
9	0	0	0	0	451
10	0	0	0	0	448
11	0	0	0	0	470
12	0	0	0	0	465
13	0	0	0	0	470
14	0	0	0	0	474
15	0	0	0	0	470
0	0	0	0	0	490
1	0	0	0	0	481
2	0	0	0	0	486
3	0	0	0	0	492
4	0	0	0	0	486
5	0	0	0	0	504
6	0	0	0	0	495
7	0	0	0	0	497
8	0	0	0	0	502
9	0	0	0	0	496
10	0	0	0	0	513
11	0	0	0	0	504
12	0	0	0	0	511
13	0	0	0	0	516
14	0	0	0	0	509
15	0	0	0	0	526
0	0	0	0	0	515
1	0	0	0	0	513
2	0	0	0	0	512
3	0	0	0	0	502
4	0	0	0	0	513
5	0	0	0	0	500
6	0	0	0	0	505
7	0	0	0	0	509
8	0	0	0	0	502
9	0	0	0	0	519
10	0	0	0	0	508
11	0	0	0	0	509
12	0	0	0	0	512
13	0	0	0	0	507
14	0	0	0	0	519
15	0	0	0	0	509
0	0	0	0	0	511
1	0	0	0	0	514
2	0	0	0	0	504
3	0	0	0	0	518
4	0	0	0	0	508
5	0	0	0	0	512
6	0	0	0	0	513
7	0	0	0	0	505
8	0	0	0	0	518
9	0	0	0	0	508
10	0	0	0	0	508
11	0	0	0	0	511
12	0	0	0	0	501
13	0	0	0	0	520
14	0	0	0	0	511
15	0	0	0	0	518
0	0	0	0	0	520
1	0	0	0	0	509
2	0	0	0	0	521
3	0	0	0	0	507
4	0	0	0	0	504
5	0	0	0	0	508
6	0	0	0	0	500
7	0	0	0	0	515
8	0	0	0	0	504
9	0	0	0	0	487
10	0	0	0	0	482
11	0	0	0	0	534
12	0	0	0	0	727
13	0	0	0	0	869
14	0	0	0	0	552
15	0	0	0	0	438
0	0	0	0	0	417
1	0	0	0	0	440
2	0	0	0	0	434
3	0	0	0	0	445
4	0	0	0	0	455
5	0	0	0	0	454
6	0	0	0	0	479
7	0	0	0	0	472
8	0	0	0	0	480
9	0	0	0	0	484
10	0	0	0	0	481
11	0	0	0	0	503
12	0	0	0	0	496
13	0	0	0	0	501
14	0	0	0	0	505
15	0	0	0	0	497
0	0	0	0	0	513
1	0	0	0	0	507
2	0	0	0	0	510
3	0	0	0	0	515
4	0	0	0	0	508
5	0	0	0	0	524
6	0	0	0	0	514
7	0	0	0	0	519
8	0	0	0	0	518
9	0	0	0	0	514
10	0	0	0	0	526
11	0	0	0	0	511
12	0	0	0	0	512
13	0	0	0	0	508
14	0	0	0	0	498
15	0	0	0	0	512
0	0	0	0	0	502
1	0	0	0	0	509
2	0	0	0	0	512
3	0	0	0	0	500
4	0	0	0	0	518
5	0	0	0	0	508
6	0	0	0	0	513
7	0	0	0	0	513
8	0	0	0	0	506
9	0	0	0	0	521
10	0	0	0	0	512
11	0	0	0	0	516
12	0	0	0	0	516
13	0	0	0	0	504
14	0	0	0	0	518
15	0	0	0	0	508
0	0	0	0	0	513
1	0	0	0	0	506
2	0	0	0	0	500
3	0	0	0	0	516
4	0	0	0	0	506
5	0	0	0	0	519
6	0	0	0	0	521
7	0	0	0	0	504
8	0	0	0	0	515
9	0	0	0	0	501
10	0	0	0	0	503
11	0	0	0	0	503
12	0	0	0	0	495
13	0	0	0	0	515
14	0	0	0	0	505
15	0	0	0	0	488
0	0	0	0	0	482
1	0	0	0	0	540
2	0	0	0	0	748
3	0	0	0	0	868
4	0	0	0	0	540
5	0	0	0	0	434
6	0	0	0	0	414
7	0	0	0	0	437
8	0	0	0	0	434
9	0	0	0	0	452
10	0	0	0	0	456
11	0	0	0	0	456
12	0	0	0	0	478
13	0	0	0	0	471
14	0	0	0	0	483
15	0	0	0	0	485
0	0	0	0	0	481
1	0	0	0	0	499
2	0	0	0	0	494
3	0	0	0	0	501
4	0	0	0	0	504
5	0	0	0	0	497
6	0	0	0	0	514
7	0	0	0	0	504
8	0	0	0	0	511
9	0	0	0	0	515
10	0	0	0	0	510
11	0	0	0	0	527
12	0	0	0	0	520
13	0	0	0	0	527
14	0	0	0	0	524
15	0	0	0	0	514
0	0	0	0	0	529
1	0	0	0	0	511
2	0	0	0	0	515
3	0	0	0	0	509
4	0	0	0	0	496
5	0	0	0	0	513
6	0	0	0	0	501
7	0	0	0	0	511
8	0	0	0	0	512
9	0	0	0	0	502
10	0	0	0	0	519
11	0	0	0	0	510
12	0	0	0	0	519
13	0	0	0	0	515
14	0	0	0	0	506
15	0	0	0	0	523
0	0	0	0	0	515
1	0	0	0	0	521
2	0	0	0	0	515
3	0	0	0	0	506
4	0	0	0	0	519
5	0	0	0	0	506
6	0	0	0	0	515
7	0	0	0	0	508
8	0	0	0	0	501
9	0	0	0	0	519
10	0	0	0	0	513
11	0	0	0	0	531
12	0	0	0	0	517
13	0	0	0	0	504
14	0	0	0	0	519
15	0	0	0	0	500
0	0	0	0	0	511
1	0	0	0	0	508
2	0	0	0	0	496
3	0	0	0	0	515
4	0	0	0	0	493
5	0	0	0	0	482
6	0	0	0	0	516
7	0	0	0	0	647
8	0	0	0	0	943
9	0	0	0	0	627
10	0	0	0	0	452
11	0	0	0	0	422
12	0	0	0	0	416
13	0	0	0	0	442
14	0	0	0	0	441
15	0	0	0	0	457
0	0	0	0	0	459
1	0	0	0	0	456
2	0	0	0	0	479
3	0	0	0	0	473
4	0	0	0	0	486
5	0	0	0	0	487
6	0	0	0	0	482
7	0	0	0	0	499
8	0	0	0	0	494
9	0	0	0	0	505
10	0	0	0	0	504
11	0	0	0	0	496
12	0	0	0	0	513
13	0	0	0	0	505
14	0	0	0	0	516
15	0	0	0	0	515
0	0	0	0	0	512
1	0	0	0	0	526
2	0	0	0	0	519
3	0	0	0	0	527
4	0	0	0	0	522
5	0	0	0	0	509
6	0	0	0	0	518
7	0	0	0	0	505
8	0	0	0	0	511
9	0	0	0	0	504
10	0	0	0	0	493
11	0	0	0	0	511
12	0	0	0	0	500
13	0	0	0	0	512
14	0	0	0	0	507
15	0	0	0	0	498
0	0	0	0	0	515
1	0	0	0	0	510
2	0	0	0	0	520
3	0	0	0	0	515
4	0	0	0	0	504
5	0	0	0	0	520
6	0	0	0	0	508
7	0	0	0	0	519
8	0	0	0	0	512
9	0	0	0	0	503
10	0	0	0	0	516
11	0	0	0	0	505
12	0	0	0	0	514
13	0	0	0	0	511
14	0	0	0	0	500
15	0	0	0	0	519
0	0	0	0	0	509
1	0	0	0	0	524
2	0	0	0	0	523
3	0	0	0	0	510
4	0	0	0	0	520
5	0	0	0	0	505
6	0	0	0	0	513
7	0	0	0	0	501
8	0	0	0	0	497
9	0	0	0	0	512
10	0	0	0	0	500
11	0	0	0	0	509
12	0	0	0	0	480
13	0	0	0	0	497
14	0	0	0	0	646
15	0	0	0	0	920
0	0	0	0	0	708
1	0	0	0	0	454
2	0	0	0	0	409
3	0	0	0	0	429
4	0	0	0	0	429
5	0	0	0	0	446
6	0	0	0	0	446
7	0	0	0	0	450
8	0	0	0	0	469
9	0	0	0	0	465
10	0	0	0	0	481
11	0	0	0	0	479
12	0	0	0	0	476
13	0	0	0	0	496
14	0	0	0	0	488
15	0	0	0	0	505
0	0	0	0	0	501
1	0	0	0	0	494
2	0	0	0	0	512
3	0	0	0	0	504
4	0	0	0	0	521
5	0	0	0	0	515
6	0	0	0	0	510
7	0	0	0	0	527
8	0	0	0	0	516
9	0	0	0	0	529
10	0	0	0	0	521
11	0	0	0	0	514
12	0	0	0	0	524
13	0	0	0	0	509
14	0	0	0	0	516
15	0	0	0	0	504
0	0	0	0	0	493
1	0	0	0	0	509
2	0	0	0	0	498
3	0	0	0	0	513
4	0	0	0	0	509
5	0	0	0	0	503
6	0	0	0	0	518
7	0	0	0	0	509
8	0	0	0	0	523
9	0	0	0	0	515
10	0	0	0	0	507
11	0	0	0	0	521
12	0	0	0	0	510
13	0	0	0	0	522
14	0	0	0	0	514
15	0	0	0	0	504
0	0	0	0	0	519
1	0	0	0	0	508
2	0	0	0	0	520
3	0	0	0	0	512
4	0	0	0	0	501
5	0	0	0	0	518
6	0	0	0	0	506
7	0	0	0	0	519
8	0	0	0	0	511
9	0	0	0	0	504
10	0	0	0	0	519
11	0	0	0	0	507
12	0	0	0	0	519
13	0	0	0	0	512
14	0	0	0	0	505
15	0	0	0	0	528
0	0	0	0	0	517
1	0	0	0	0	525
2	0	0	0	0	512
3	0	0	0	0	498
4	0	0	0	0	511
5	0	0	0	0	499
6	0	0	0	0	513
7	0	0	0	0	505
8	0	0	0	0	499
9	0	0	0	0	501
10	0	0	0	0	473
11	0	0	0	0	542
12	0	0	0	0	726
13	0	0	0	0	945
14	0	0	0	0	574
15	0	0	0	0	421
0	0	0	0	0	426
1	0	0	0	0	424
2	0	0	0	0	423
3	0	0	0	0	450
4	0	0	0	0	446
5	0	0	0	0	468
6	0	0	0	0	467
7	0	0	0	0	467
8	0	0	0	0	485
9	0	0	0	0	475
10	0	0	0	0	493
11	0	0	0	0	489
12	0	0	0	0	484
13	0	0	0	0	503
14	0	0	0	0	494
15	0	0	0	0	508
0	0	0	0	0	503
1	0	0	0	0	498
2	0	0	0	0	512
3	0	0	0	0	505
4	0	0	0	0	523
5	0	0	0	0	515
6	0	0	0	0	508
7	0	0	0	0	526
8	0	0	0	0	515
9	0	0	0	0	529
10	0	0	0	0	516
11	0	0	0	0	504
12	0	0	0	0	513
13	0	0	0	0	499
14	0	0	0	0	511
15	0	0	0	0	500
0	0	0	0	0	493
1	0	0	0	0	508
2	0	0	0	0	499
3	0	0	0	0	516
4	0	0	0	0	505
5	0	0	0	0	500
6	0	0	0	0	515
7	0	0	0	0	507
8	0	0	0	0	524
9	0	0	0	0	511
10	0	0	0	0	502
11	0	0	0	0	518
12	0	0	0	0	508
13	0	0	0	0	521
14	0	0	0	0	512
15	0	0	0	0	504
0	0	0	0	0	517
1	0	0	0	0	506
2	0	0	0	0	520
3	0	0	0	0	511
4	0	0	0	0	504
5	0	0	0	0	518
6	0	0	0	0	508
7	0	0	0	0	521
8	0	0	0	0	512
9	0	0	0	0	504
10	0	0	0	0	519
11	0	0	0	0	507
12	0	0	0	0	524
13	0	0	0	0	512
14	0	0	0	0	505
15	0	0	0	0	518
0	0	0	0	0	509
1	0	0	0	0	523
2	0	0	0	0	514
3	0	0	0	0	506
4	0	0	0	0	518
5	0	0	0	0	511
6	0	0	0	0	524
7	0	0	0	0	512
8	0	0	0	0	505
9	0	0	0	0	517
10	0	0	0	0	508
11	0	0	0	0	523
12	0	0	0	0	512
13	0	0	0	0	505
14	0	0	0	0	517
15	0	0	0	0	507
0	0	0	0	0	524
1	0	0	0	0	513
2	0	0	0	0	505
3	0	0	0	0	517
4	0	0	0	0	508
5	0	0	0	0	524
6	0	0	0	0	511
7	0	0	0	0	507
8	0	0	0	0	521
9	0	0	0	0	517
10	0	0	0	0	535
11	0	0	0	0	515
12	0	0	0	0	509
13	0	0	0	0	519
14	0	0	0	0	506
15	0	0	0	0	520
0	0	0	0	0	508
1	0	0	0	0	503
2	0	0	0	0	512
3	0	0	0	0	477
4	0	0	0	0	498
5	0	0	0	0	603
6	0	0	0	0	884
7	0	0	0	0	836
8	0	0	0	0	465
9	0	0	0	0	424
10	0	0	0	0	413
11	0	0	0	0	415
12	0	0	0	0	433
13	0	0	0	0	432
14	0	0	0	0	455
15	0	0	0	0	452
0	0	0	0	0	455
1	0	0	0	0	473
2	0	0	0	0	470
3	0	0	0	0	488
4	0	0	0	0	480
5	0	0	0	0	480
6	0	0	0	0	492
7	0	0	0	0	486
8	0	0	0	0	504
9	0	0	0	0	496
10	0	0	0	0	494
11	0	0	0	0	508
12	0	0	0	0	498
13	0	0	0	0	519
14	0	0	0	0	512
15	0	0	0	0	510
0	0	0	0	0	523
1	0	0	0	0	517
2	0	0	0	0	535
3	0	0	0	0	525
4	0	0	0	0	520
5	0	0	0	0	528
6	0	0	0	0	515
7	0	0	0	0	527
8	0	0	0	0	511
9	0	0	0	0	507
10	0	0	0	0	517
11	0	0	0	0	506
12	0	0	0	0	524
13	0	0	0	0	513
14	0	0	0	0	510
15	0	0	0	0	520
0	0	0	0	0	512
1	0	0	0	0	528
2	0	0	0	0	516
3	0	0	0	0	514
4	0	0	0	0	523
5	0	0	0	0	514
6	0	0	0	0	530
7	0	0	0	0	519
8	0	0	0	0	515
9	0	0	0	0	522
10	0	0	0	0	513
11	0	0	0	0	528
12	0	0	0	0	516
13	0	0	0	0	513
14	0	0	0	0	519
15	0	0	0	0	509
0	0	0	0	0	523
1	0	0	0	0	512
2	0	0	0	0	507
3	0	0	0	0	514
4	0	0	0	0	502
5	0	0	0	0	516
6	0	0	0	0	503
7	0	0	0	0	499
8	0	0	0	0	508
9	0	0	0	0	499
10	0	0	0	0	513
11	0	0	0	0	503
12	0	0	0	0	498
13	0	0	0	0	507
14	0	0	0	0	496
15	0	0	0	0	513
0	0	0	0	0	504
1	0	0	0	0	503
2	0	0	0	0	509
3	0	0	0	0	500
4	0	0	0	0	517
5	0	0	0	0	505
6	0	0	0	0	504
7	0	0	0	0	512
8	0	0	0	0	501
9	0	0	0	0	519
10	0	0	0	0	511
11	0	0	0	0	510
12	0	0	0	0	516
13	0	0	0	0	508
14	0	0	0	0	524
15	0	0	0	0	514
0	0	0	0	0	515
1	0	0	0	0	521
2	0	0	0	0	512
3	0	0	0	0	528
4	0	0	0	0	516
5	0	0	0	0	523
6	0	0	0	0	527
7	0	0	0	0	512
8	0	0	0	0	526
9	0	0	0	0	512
10	0	0	0	0	508
11	0	0	0	0	513
12	0	0	0	0	505
13	0	0	0	0	519
14	0	0	0	0	499
15	0	0	0	0	469
0	0	0	0	0	510
1	0	0	0	0	707
2	0	0	0	0	1010
3	0	0	0	0	655
4	0	0	0	0	434
5	0	0	0	0	415
6	0	0	0	0	409
7	0	0	0	0	430
8	0	0	0	0	431
9	0	0	0	0	438
10	0	0	0	0	452
11	0	0	0	0	449
12	0	0	0	0	470
13	0	0	0	0	465
14	0	0	0	0	470
15	0	0	0	0	478
0	0	0	0	0	470
1	0	0	0	0	487
2	0	0	0	0	479
3	0	0	0	0	482
4	0	0	0	0	488
5	0	0	0	0	482
6	0	0	0	0	497
7	0	0	0	0	487
8	0	0	0	0	489
9	0	0	0	0	497
10	0	0	0	0	492
11	0	0	0	0	511
12	0	0	0	0	504
13	0	0	0	0	506
14	0	0	0	0	512
15	0	0	0	0	508
0	0	0	0	0	524
1	0	0	0	0	512
2	0	0	0	0	511
3	0	0	0	0	511
4	0	0	0	0	498
5	0	0	0	0	514
6	0	0	0	0	502
7	0	0	0	0	504
8	0	0	0	0	507
9	0	0	0	0	498
10	0	0	0	0	514
11	0	0	0	0	503
12	0	0	0	0	505
13	0	0	0	0	507
14	0	0	0	0	500
15	0	0	0	0	516
0	0	0	0	0	504
1	0	0	0	0	507
2	0	0	0	0	510
3	0	0	0	0	503
4	0	0	0	0	519
5	0	0	0	0	507
6	0	0	0	0	511
7	0	0	0	0	513
8	0	0	0	0	505
9	0	0	0	0	520
10	0	0	0	0	509
11	0	0	0	0	514
12	0	0	0	0	514
13	0	0	0	0	505
14	0	0	0	0	520
15	0	0	0	0	510
0	0	0	0	0	512
1	0	0	0	0	515
2	0	0	0	0	506
3	0	0	0	0	521
4	0	0	0	0	510
5	0	0	0	0	514
6	0	0	0	0	513
7	0	0	0	0	504
8	0	0	0	0	519
9	0	0	0	0	509
10	0	0	0	0	515
11	0	0	0	0	513
12	0	0	0	0	505
13	0	0	0	0	519
14	0	0	0	0	510
15	0	0	0	0	512
0	0	0	0	0	511
1	0	0	0	0	503
2	0	0	0	0	515
3	0	0	0	0	504
4	0	0	0	0	508
5	0	0	0	0	508
6	0	0	0	0	498
7	0	0	0	0	513
8	0	0	0	0	504
9	0	0	0	0	508
10	0	0	0	0	508
11	0	0	0	0	501
12	0	0	0	0	515
13	0	0	0	0	505
14	0	0	0	0	511
15	0	0	0	0	511
0	0	0	0	0	509
1	0	0	0	0	522
2	0	0	0	0	507
3	0	0	0	0	513
4	0	0	0	0	510
5	0	0	0	0	499
6	0	0	0	0	514
7	0	0	0	0	504
8	0	0	0	0	510
9	0	0	0	0	505
10	0	0	0	0	464
11	0	0	0	0	499
12	0	0	0	0	647
13	0	0	0	0	962
14	0	0	0	0	736
15	0	0	0	0	454
0	0	0	0	0	426
1	0	0	0	0	414
2	0	0	0	0	427
3	0	0	0	0	432
4	0	0	0	0	432
5	0	0	0	0	455
6	0	0	0	0	452
7	0	0	0	0	466
8	0	0	0	0	470
9	0	0	0	0	466
10	0	0	0	0	485
11	0	0	0	0	478
12	0	0	0	0	486
13	0	0	0	0	486
14	0	0	0	0	481
15	0	0	0	0	497
0	0	0	0	0	489
1	0	0	0	0	498
2	0	0	0	0	495
3	0	0	0	0	491
4	0	0	0	0	508
5	0	0	0	0	500
6	0	0	0	0	512
7	0	0	0	0	512
8	0	0	0	0	507
9	0	0	0	0	522
10	0	0	0	0	514
11	0	0	0	0	525
12	0	0	0	0	524
13	0	0	0	0	514
14	0	0	0	0	524
15	0	0	0	0	510
0	0	0	0	0	516
1	0	0	0	0	512
2	0	0	0	0	503
3	0	0	0	0	516
4	0	0	0	0	509
5	0	0	0	0	518
6	0	0	0	0	514
7	0	0	0	0	505
8	0	0	0	0	517
9	0	0	0	0	508
10	0	0	0	0	515
11	0	0	0	0	509
12	0	0	0	0	503
13	0	0	0	0	519
14	0	0	0	0	507
15	0	0	0	0	510
0	0	0	0	0	500
1	0	0	0	0	489
2	0	0	0	0	501
3	0	0	0	0	489
4	0	0	0	0	499
5	0	0	0	0	499
6	0	0	0	0	492
7	0	0	0	0	508
8	0	0	0	0	499
9	0	0	0	0	505
10	0	0	0	0	503
11	0	0	0	0	496
12	0	0	0	0	511
13	0	0	0	0	502
14	0	0	0	0	509
15	0	0	0	0	507
0	0	0	0	0	500
1	0	0	0	0	514
2	0	0	0	0	507
3	0	0	0	0	516
4	0	0	0	0	512
5	0	0	0	0	504
6	0	0	0	0	518
7	0	0	0	0	508
8	0	0	0	0	517
9	0	0	0	0	512
10	0	0	0	0	505
11	0	0	0	0	519
12	0	0	0	0	511
13	0	0	0	0	520
14	0	0	0	0	513
15	0	0	0	0	505
0	0	0	0	0	519
1	0	0	0	0	508
2	0	0	0	0	515
3	0	0	0	0	511
4	0	0	0	0	500
5	0	0	0	0	512
6	0	0	0	0	502
7	0	0	0	0	512
8	0	0	0	0	508
9	0	0	0	0	505
10	0	0	0	0	514
11	0	0	0	0	505
12	0	0	0	0	514
13	0	0	0	0	504
14	0	0	0	0	496
15	0	0	0	0	511
0	0	0	0	0	502
1	0	0	0	0	511
2	0	0	0	0	480
3	0	0	0	0	464
4	0	0	0	0	548
5	0	0	0	0	812
6	0	0	0	0	906
7	0	0	0	0	530
8	0	0	0	0	417
9	0	0	0	0	418
10	0	0	0	0	413
11	0	0	0	0	431
12	0	0	0	0	433
13	0	0	0	0	435
14	0	0	0	0	455
15	0	0	0	0	454
0	0	0	0	0	470
1	0	0	0	0	469
2	0	0	0	0	468
3	0	0	0	0	485
4	0	0	0	0	478
5	0	0	0	0	490
6	0	0	0	0	486
7	0	0	0	0	482
8	0	0	0	0	497
9	0	0	0	0	491
10	0	0	0	0	505
11	0	0	0	0	497
12	0	0	0	0	495
13	0	0	0	0	510
14	0	0	0	0	504
15	0	0	0	0	519
0	0	0	0	0	513
1	0	0	0	0	510
2	0	0	0	0	525
3	0	0	0	0	519
4	0	0	0	0	535
5	0	0	0	0	529
6	0	0	0	0	520
7	0	0	0	0	529
8	0	0	0	0	520
9	0	0	0	0	530
10	0	0	0	0	521
11	0	0	0	0	513
12	0	0	0	0	526
13	0	0	0	0	515
14	0	0	0	0	527
15	0	0	0	0	517
0	0	0	0	0	512
1	0	0	0	0	524
2	0	0	0	0	513
3	0	0	0	0	524
4	0	0	0	0	515
5	0	0	0	0	511
6	0	0	0	0	520
7	0	0	0	0	514
8	0	0	0	0	524
9	0	0	0	0	516
10	0	0	0	0	509
11	0	0	0	0	518
12	0	0	0	0	510
13	0	0	0	0	519
14	0	0	0	0	510
15	0	0	0	0	505
0	0	0	0	0	516
1	0	0	0	0	506
2	0	0	0	0	516
3	0	0	0	0	507
4	0	0	0	0	501
5	0	0	0	0	512
6	0	0	0	0	504
7	0	0	0	0	516
8	0	0	0	0	505
9	0	0	0	0	501
10	0	0	0	0	511
11	0	0	0	0	502
12	0	0	0	0	515
13	0	0	0	0	505
14	0	0	0	0	499
15	0	0	0	0	511
0	0	0	0	0	503
1	0	0	0	0	515
2	0	0	0	0	506
3	0	0	0	0	500
4	0	0	0	0	511
5	0	0	0	0	503
6	0	0	0	0	514
7	0	0	0	0	506
8	0	0	0	0	502
9	0	0	0	0	511
10	0	0	0	0	503
11	0	0	0	0	515
12	0	0	0	0	505
13	0	0	0	0	499
14	0	0	0	0	511
15	0	0	0	0	504
0	0	0	0	0	520
1	0	0	0	0	513
2	0	0	0	0	505
3	0	0	0	0	515
4	0	0	0	0	507
5	0	0	0	0	516
6	0	0	0	0	507
7	0	0	0	0	501
8	0	0	0	0	513
9	0	0	0	0	500
10	0	0	0	0	479
11	0	0	0	0	491
12	0	0	0	0	639
13	0	0	0	0	966
14	0	0	0	0	692
15	0	0	0	0	472
0	0	0	0	0	419
1	0	0	0	0	413
2	0	0	0	0	428
3	0	0	0	0	428
4	0	0	0	0	449
5	0	0	0	0	449
6	0	0	0	0	451
7	0	0	0	0	467
8	0	0	0	0	463
9	0	0	0	0	481
10	0	0	0	0	473
11	0	0	0	0	473
12	0	0	0	0	486
13	0	0	0	0	483
14	0	0	0	0	496
15	0	0	0	0	488
0	0	0	0	0	486
1	0	0	0	0	494
2	0	0	0	0	489
3	0	0	0	0	502
4	0	0	0	0	494
5	0	0	0	0	492
6	0	0	0	0	505
7	0	0	0	0	499
8	0	0	0	0	515
9	0	0	0	0	508
10	0	0	0	0	507
11	0	0	0	0	520
12	0	0	0	0	513
13	0	0	0	0	526
14	0	0	0	0	513
15	0	0	0	0	509
0	0	0	0	0	514
1	0	0	0	0	507
2	0	0	0	0	519
3	0	0	0	0	508
4	0	0	0	0	505
5	0	0	0	0	514
6	0	0	0	0	506
7	0	0	0	0	516
8	0	0	0	0	509
9	0	0	0	0	505
10	0	0	0	0	513
11	0	0	0	0	505
12	0	0	0	0	518
13	0	0	0	0	508
14	0	0	0	0	504
15	0	0	0	0	514
0	0	0	0	0	505
1	0	0	0	0	518
2	0	0	0	0	508
3	0	0	0	0	504
4	0	0	0	0	514
5	0	0	0	0	505
6	0	0	0	0	517
7	0	0	0	0	507
8	0	0	0	0	504
9	0	0	0	0	511
10	0	0	0	0	502
11	0	0	0	0	514
12	0	0	0	0	505
13	0	0	0	0	504
14	0	0	0	0	509
15	0	0	0	0	500
0	0	0	0	0	513
1	0	0	0	0	503
2	0	0	0	0	496
3	0	0	0	0	501
4	0	0	0	0	495
5	0	0	0	0	508
6	0	0	0	0	499
7	0	0	0	0	496
8	0	0	0	0	503
9	0	0	0	0	498
10	0	0	0	0	518
11	0	0	0	0	515
12	0	0	0	0	518
13	0	0	0	0	519
14	0	0	0	0	509
15	0	0	0	0	519
0	0	0	0	0	505
1	0	0	0	0	504
2	0	0	0	0	510
3	0	0	0	0	502
4	0	0	0	0	513
5	0	0	0	0	475
6	0	0	0	0	481
7	0	0	0	0	583
8	0	0	0	0	851
9	0	0	0	0	774
10	0	0	0	0	487
11	0	0	0	0	422
12	0	0	0	0	428
13	0	0	0	0	425
14	0	0	0	0	446
15	0	0	0	0	442
0	0	0	0	0	448
1	0	0	0	0	462
2	0	0	0	0	458
3	0	0	0	0	476
4	0	0	0	0	470
5	0	0	0	0	472
6	0	0	0	0	484
7	0	0	0	0	480
8	0	0	0	0	500
9	0	0	0	0	495
10	0	0	0	0	495
11	0	0	0	0	501
12	0	0	0	0	494
13	0	0	0	0	509
14	0	0	0	0	503
15	0	0	0	0	510
0	0	0	0	0	520
1	0	0	0	0	513
2	0	0	0	0	529
3	0	0	0	0	518
4	0	0	0	0	521
5	0	0	0	0	527
6	0	0	0	0	516
7	0	0	0	0	530
8	0	0	0	0	513
9	0	0	0	0	508
10	0	0	0	0	509
11	0	0	0	0	497
12	0	0	0	0	513
13	0	0	0	0	502
14	0	0	0	0	504
15	0	0	0	0	508
0	0	0	0	0	501
1	0	0	0	0	515
2	0	0	0	0	501
3	0	0	0	0	501
4	0	0	0	0	507
5	0	0	0	0	497
6	0	0	0	0	512
7	0	0	0	0	503
8	0	0	0	0	505
9	0	0	0	0	507
10	0	0	0	0	498
11	0	0	0	0	512
12	0	0	0	0	504
13	0	0	0	0	505
14	0	0	0	0	511
15	0	0	0	0	501
0	0	0	0	0	519
1	0	0	0	0	508
2	0	0	0	0	508
3	0	0	0	0	512
4	0	0	0	0	503
5	0	0	0	0	518
6	0	0	0	0	507
7	0	0	0	0	509
8	0	0	0	0	516
9	0	0	0	0	512
10	0	0	0	0	532
11	0	0	0	0	514
12	0	0	0	0	515
13	0	0	0	0	512
14	0	0	0	0	500
15	0	0	0	0	515
0	0	0	0	0	504
1	0	0	0	0	504
2	0	0	0	0	508
3	0	0	0	0	480
4	0	0	0	0	489
5	0	0	0	0	539
6	0	0	0	0	731
7	0	0	0	0	881
8	0	0	0	0	543
9	0	0	0	0	444
10	0	0	0	0	422
11	0	0	0	0	429
12	0	0	0	0	436
13	0	0	0	0	435
14	0	0	0	0	462
15	0	0	0	0	458
0	0	0	0	0	468
1	0	0	0	0	477
2	0	0	0	0	470
3	0	0	0	0	489
4	0	0	0	0	480
5	0	0	0	0	487
6	0	0	0	0	494
7	0	0	0	0	488
8	0	0	0	0	508
9	0	0	0	0	499
10	0	0	0	0	504
11	0	0	0	0	509
12	0	0	0	0	501
13	0	0	0	0	521
14	0	0	0	0	512
15	0	0	0	0	518
0	0	0	0	0	520
1	0	0	0	0	515
2	0	0	0	0	532
3	0	0	0	0	523
4	0	0	0	0	525
5	0	0	0	0	524
6	0	0	0	0	511
7	0	0	0	0	521
8	0	0	0	0	506
9	0	0	0	0	510
